Tabla del radio en funcion del angulo para trayectoria parabolica de perihelio 0.5 UA:
   Angulo [rad]				 Radio [UA]
-2.356194490192345			3.4142135623730945
-2.351194490192345			3.3733914936835427
-2.346194490192345			3.333338624239404
-2.341194490192345			3.294035806674854
-2.3361944901923453			3.2554644861520434
-2.3311944901923454			3.2176066784946316
-2.3261944901923455			3.180444949257009
-2.3211944901923456			3.143962393683744
-2.3161944901923457			3.108142617516241
-2.311194490192346			3.0729697186059237
-2.306194490192346			3.0384282692954243
-2.301194490192346			3.0045032995313736
-2.296194490192346			2.9711802806742376
-2.2911944901923462			2.9384451099725357
-2.2861944901923463			2.906284095670452
-2.2811944901923464			2.8746839427194897
-2.2761944901923465			2.8436317390663226
-2.2711944901923466			2.8131149424904396
-2.2661944901923468			2.783121367966536
-2.261194490192347			2.753639175527881
-2.256194490192347			2.7246568586080877
-2.251194490192347			2.6961632328398517
-2.246194490192347			2.6681474252903135
-2.2411944901923473			2.640598864113687
-2.2361944901923474			2.613507268602787
-2.2311944901923475			2.5868626396219625
-2.2261944901923476			2.560655250404823
-2.2211944901923477			2.534875637700948
-2.216194490192348			2.509514593256535
-2.211194490192348			2.4845631556146626
-2.206194490192348			2.4600126022215516
-2.201194490192348			2.4358544418258226
-2.1961944901923482			2.412080407158408
-2.1911944901923484			2.3886824478813242
-2.1861944901923485			2.3656527237940783
-2.1811944901923486			2.3429835982870117
-2.1761944901923487			2.320667632031372
-2.171194490192349			2.2986975768963847
-2.166194490192349			2.277066370084035
-2.161194490192349			2.255767128472697
-2.156194490192349			2.2347931431611707
-2.151194490192349			2.214137874205029
-2.1461944901923493			2.1937949455375865
-2.1411944901923494			2.17375814006812
-2.1361944901923495			2.154021394950297
-2.1311944901923496			2.1345787970141097
-2.1261944901923497			2.1154245783548733
-2.12119449019235			2.096553112073151
-2.11619449019235			2.07795890815974
-2.11119449019235			2.0596366095200875
-2.10619449019235			2.0415809881327767
-2.1011944901923503			2.0237869413369327
-2.0961944901923504			2.0062494882436295
-2.0911944901923505			1.988963766266583
-2.0861944901923506			1.9719250277676348
-2.0811944901923507			1.955128636812684
-2.076194490192351			1.9385700660339493
-2.071194490192351			1.9222448935945886
-2.066194490192351			1.9061488002518787
-2.061194490192351			1.8902775665153155
-2.0561944901923512			1.8746270698961458
-2.0511944901923513			1.85919328224498
-2.0461944901923514			1.8439722671742838
-2.0411944901923516			1.8289601775626605
-2.0361944901923517			1.8141532531379843
-2.0311944901923518			1.7995478181365387
-2.026194490192352			1.785140279035443
-2.021194490192352			1.7709271223557639
-2.016194490192352			1.756904912533796
-2.011194490192352			1.7430702898581096
-2.0061944901923523			1.7294199684700495
-2.0011944901923524			1.7159507344254739
-1.9961944901923525			1.7026594438155844
-1.9911944901923526			1.689543020944812
-1.9861944901923527			1.676598456563779
-1.9811944901923528			1.6638228061554423
-1.976194490192353			1.6512131882726042
-1.971194490192353			1.63876678292503
-1.9661944901923532			1.6264808300144937
-1.9611944901923533			1.6143526278161282
-1.9561944901923534			1.602379531504523
-1.9511944901923535			1.5905589517230674
-1.9461944901923536			1.5788883531950944
-1.9411944901923537			1.5673652533754385
-1.9361944901923538			1.555987221141066
-1.931194490192354			1.5447518755194913
-1.926194490192354			1.5336568844537357
-1.921194490192354			1.5226999636026373
-1.9161944901923542			1.5118788751753562
-1.9111944901923543			1.501191426798969
-1.9061944901923544			1.490635470418081
-1.9011944901923545			1.4802089012254298
-1.8961944901923546			1.469909656622477
-1.8911944901923547			1.459735715209046
-1.8861944901923549			1.4496850958010676
-1.881194490192355			1.4397558564755528
-1.876194490192355			1.4299460936419277
-1.8711944901923552			1.4202539411389077
-1.8661944901923553			1.4106775693561064
-1.8611944901923554			1.401215184379612
-1.8561944901923555			1.3918650271607835
-1.8511944901923556			1.382625372707552
-1.8461944901923557			1.3734945292975305
-1.8411944901923558			1.3644708377122627
-1.836194490192356			1.355552670491968
-1.831194490192356			1.346738431210153
-1.8261944901923561			1.3380265537674914
-1.8211944901923562			1.3294155017043852
-1.8161944901923563			1.3209037675316493
-1.8111944901923565			1.312489872078771
-1.8061944901923566			1.3041723638592222
-1.8011944901923567			1.2959498184523155
-1.7961944901923568			1.2878208379011116
-1.7911944901923569			1.2797840501259072
-1.786194490192357			1.27183810835284
-1.781194490192357			1.2639816905571708
-1.7761944901923572			1.2562134989208107
-1.7711944901923573			1.2485322593036812
-1.7661944901923574			1.2409367207285036
-1.7611944901923575			1.2334256548786287
-1.7561944901923576			1.2259978556085347
-1.7511944901923577			1.2186521384666242
-1.7461944901923578			1.2113873402299737
-1.741194490192358			1.2042023184506898
-1.736194490192358			1.1970959510135473
-1.7311944901923582			1.1900671357045856
-1.7261944901923583			1.1831147897903564
-1.7211944901923584			1.1762378496075252
-1.7161944901923585			1.1694352701625297
-1.7111944901923586			1.1627060247410237
-1.7061944901923587			1.1560491045268273
-1.7011944901923588			1.1494635182301218
-1.696194490192359			1.1429482917246363
-1.691194490192359			1.1365024676935749
-1.6861944901923591			1.1301251052840458
-1.6811944901923592			1.123815279769763
-1.6761944901923593			1.1175720822217896
-1.6711944901923594			1.1113946191871094
-1.6661944901923595			1.105282012374811
-1.6611944901923597			1.0992333983496836
-1.6561944901923598			1.0932479282330185
-1.6511944901923599			1.0873247674104323
-1.64619449019236			1.0814630952465147
-1.64119449019236			1.0756621048061283
-1.6361944901923602			1.0699210025821744
-1.6311944901923603			1.0642390082296649
-1.6261944901923604			1.0586153543059236
-1.6211944901923605			1.053049286016763
-1.6161944901923606			1.0475400609684777
-1.6111944901923607			1.0420869489255014
-1.6061944901923608			1.0366892315735832
-1.601194490192361			1.031346202288338
-1.596194490192361			1.0260571659090314
-1.5911944901923611			1.020821438517468
-1.5861944901923613			1.0156383472218478
-1.5811944901923614			1.0105072299454647
-1.5761944901923615			1.005427435220127
-1.5711944901923616			1.0003983219841748
-1.5661944901923617			0.9954192593849815
-1.5611944901923618			0.9904896265858237
-1.556194490192362			0.9856088125770104
-1.551194490192362			0.9807762159911666
-1.546194490192362			0.9759912449225631
-1.5411944901923622			0.9712533167503948
-1.5361944901923623			0.9665618579659089
-1.5311944901923624			0.9619163040032861
-1.5261944901923625			0.9573160990741835
-1.5211944901923626			0.9527606960058477
-1.5161944901923627			0.9482495560827126
-1.5111944901923628			0.9437821488913928
-1.506194490192363			0.9393579521689942
-1.501194490192363			0.9349764516546578
-1.4961944901923632			0.930637140944259
-1.4911944901923633			0.9263395213481868
-1.4861944901923634			0.9220831017521279
-1.4811944901923635			0.9178673984807837
-1.4761944901923636			0.9136919351644511
-1.4711944901923637			0.9095562426083942
-1.4661944901923638			0.9054598586649478
-1.461194490192364			0.9014023281082806
-1.456194490192364			0.8973832025117587
-1.4511944901923641			0.8934020401278482
-1.4461944901923642			0.8894584057704964
-1.4411944901923643			0.8855518706999316
-1.4361944901923644			0.8816820125098284
-1.4311944901923646			0.8778484150167805
-1.4261944901923647			0.8740506681520291
-1.4211944901923648			0.8702883678553929
-1.4161944901923649			0.8665611159713494
-1.411194490192365			0.8628685201472197
-1.406194490192365			0.8592101937334043
-1.4011944901923652			0.8555857556856279
-1.3961944901923653			0.8519948304691424
-1.3911944901923654			0.8484370479648473
-1.3861944901923655			0.844912043377282
-1.3811944901923656			0.8414194571444471
-1.3761944901923657			0.837958934849415
-1.3711944901923658			0.8345301271336883
-1.366194490192366			0.8311326896122668
-1.361194490192366			0.827766282790385
-1.3561944901923662			0.8244305719818832
-1.3511944901923663			0.8211252272291747
-1.3461944901923664			0.8178499232247748
-1.3411944901923665			0.8146043392343557
-1.3361944901923666			0.8113881590212951
-1.3311944901923667			0.8082010707726843
-1.3261944901923668			0.8050427670267641
-1.321194490192367			0.8019129446017573
-1.316194490192367			0.798811304526068
-1.3111944901923671			0.7957375519698158
-1.3061944901923672			0.7926913961776779
-1.3011944901923673			0.7896725504030112
-1.2961944901923674			0.7866807318432228
-1.2911944901923675			0.7837156615763677
-1.2861944901923676			0.7807770644989428
-1.2811944901923678			0.7778646692648535
-1.2761944901923679			0.7749782082255271
-1.271194490192368			0.7721174173711493
-1.266194490192368			0.7692820362729998
-1.2611944901923682			0.7664718080268627
-1.2561944901923683			0.7636864791974896
-1.2511944901923684			0.7609257997640941
-1.2461944901923685			0.7581895230668544
-1.2411944901923686			0.7554774057544036
-1.2361944901923687			0.752789207732287
-1.2311944901923688			0.7501246921123669
-1.226194490192369			0.7474836251631534
-1.221194490192369			0.744865776261044
-1.2161944901923691			0.7422709178424515
-1.2111944901923692			0.7396988253568031
-1.2061944901923694			0.737149277220392
-1.2011944901923695			0.7346220547710643
-1.1961944901923696			0.732116942223724
-1.1911944901923697			0.7296337266266394
-1.1861944901923698			0.7271721978185344
-1.1811944901923699			0.7247321483864493
-1.17619449019237			0.7223133736243545
-1.17119449019237			0.7199156714925032
-1.1661944901923702			0.7175388425775067
-1.1611944901923703			0.7151826900531189
-1.1561944901923704			0.7128470196417154
-1.1511944901923705			0.7105316395764536
-1.1461944901923706			0.7082363605640988
-1.1411944901923707			0.705960995748506
-1.1361944901923708			0.7037053606747395
-1.131194490192371			0.7014692732538249
-1.126194490192371			0.6992525537281125
-1.1211944901923712			0.6970550246372472
-1.1161944901923713			0.6948765107847289
-1.1111944901923714			0.6927168392050532
-1.1061944901923715			0.6905758391314213
-1.1011944901923716			0.6884533419640066
-1.0961944901923717			0.6863491812387698
-1.0911944901923718			0.684263192596808
-1.086194490192372			0.682195213754232
-1.081194490192372			0.6801450844725568
-1.0761944901923721			0.6781126465296007
-1.0711944901923722			0.6760977436908779
-1.0661944901923723			0.6741002216814789
-1.0611944901923724			0.6721199281584279
-1.0561944901923725			0.6701567126835087
-1.0511944901923727			0.6682104266965493
-1.0461944901923728			0.6662809234891564
-1.0411944901923729			0.6643680581788944
-1.036194490192373			0.662471687683895
-1.031194490192373			0.660591670697894
-1.0261944901923732			0.6587278676656861
-1.0211944901923733			0.6568801407589875
-1.0161944901923734			0.655048353852702
-1.0111944901923735			0.653232372501582
-1.0061944901923736			0.6514320639172754
-1.0011944901923737			0.6496472969457526
-0.9961944901923737			0.6478779420451088
-0.9911944901923737			0.6461238712637287
-0.9861944901923737			0.644384958218814
-0.9811944901923737			0.642661078075262
-0.9761944901923737			0.6409521075248902
-0.9711944901923737			0.6392579247660026
-0.9661944901923737			0.6375784094832883
-0.9611944901923737			0.635913442828048
-0.9561944901923737			0.6342629073987432
-0.9511944901923737			0.6326266872218613
-0.9461944901923737			0.6310046677330894
-0.9411944901923737			0.629396735758795
-0.9361944901923737			0.6278027794978049
-0.9311944901923737			0.626222688503478
-0.9261944901923737			0.6246563536660666
-0.9211944901923736			0.6231036671953623
-0.9161944901923736			0.6215645226036187
-0.9111944901923736			0.6200388146887497
-0.9061944901923736			0.6185264395177942
-0.9011944901923736			0.617027294410647
-0.8961944901923736			0.6155412779240477
-0.8911944901923736			0.6140682898358251
-0.8861944901923736			0.6126082311293912
-0.8811944901923736			0.6111610039784822
-0.8761944901923736			0.6097265117321404
-0.8711944901923736			0.6083046588999341
-0.8661944901923736			0.606895351137411
-0.8611944901923736			0.6054984952317802
-0.8561944901923736			0.6041139990878207
-0.8511944901923736			0.602741771714011
-0.8461944901923736			0.6013817232088761
-0.8411944901923736			0.6000337647475493
-0.8361944901923736			0.5986978085685444
-0.8311944901923736			0.5973737679607336
-0.8261944901923736			0.5960615572505304
-0.8211944901923736			0.5947610917892714
-0.8161944901923736			0.5934722879407947
-0.8111944901923736			0.5921950630692117
-0.8061944901923735			0.5909293355268695
-0.8011944901923735			0.5896750246424993
-0.7961944901923735			0.5884320507095484
-0.7911944901923735			0.5872003349746937
-0.7861944901923735			0.585979799626533
-0.7811944901923735			0.5847703677844494
-0.7761944901923735			0.5835719634876496
-0.7711944901923735			0.5823845116843704
-0.7661944901923735			0.5812079382212512
-0.7611944901923735			0.5800421698328696
-0.7561944901923735			0.5788871341314403
-0.7511944901923735			0.5777427595966695
-0.7461944901923735			0.576608975565766
-0.7411944901923735			0.5754857122236061
-0.7361944901923735			0.5743729005930495
-0.7311944901923735			0.573270472525401
-0.7261944901923735			0.5721783606910222
-0.7211944901923735			0.5710964985700832
-0.7161944901923735			0.5700248204434574
-0.7111944901923735			0.5689632613837553
-0.7061944901923735			0.5679117572464952
-0.7011944901923735			0.5668702446614083
-0.6961944901923734			0.5658386610238763
-0.6911944901923734			0.5648169444865
-0.6861944901923734			0.5638050339507968
-0.6811944901923734			0.562802869059024
-0.6761944901923734			0.5618103901861267
-0.6711944901923734			0.5608275384318081
-0.6661944901923734			0.5598542556127224
-0.6611944901923734			0.5588904842547836
-0.6561944901923734			0.557936167585594
-0.6511944901923734			0.5569912495269866
-0.6461944901923734			0.5560556746876815
-0.6411944901923734			0.5551293883560539
-0.6361944901923734			0.5542123364930124
-0.6311944901923734			0.5533044657249859
-0.6261944901923734			0.5524057233370174
-0.6211944901923734			0.551516057265962
-0.6161944901923734			0.5506354160937905
-0.6111944901923734			0.5497637490409937
-0.6061944901923734			0.5489010059600874
-0.6011944901923734			0.548047137329218
-0.5961944901923734			0.5472020942458635
-0.5911944901923734			0.5463658284206333
-0.5861944901923734			0.5455382921711608
-0.5811944901923733			0.5447194384160907
-0.5761944901923733			0.5439092206691585
-0.5711944901923733			0.5431075930333598
-0.5661944901923733			0.5423145101952108
-0.5611944901923733			0.5415299274190954
-0.5561944901923733			0.5407538005417009
-0.5511944901923733			0.5399860859665375
-0.5461944901923733			0.539226740658545
-0.5411944901923733			0.5384757221387807
-0.5361944901923733			0.5377329884791904
-0.5311944901923733			0.5369984982974607
-0.5261944901923733			0.536272210751951
-0.5211944901923733			0.5355540855367046
-0.5161944901923733			0.5348440828765373
-0.5111944901923733			0.5341421635222028
-0.5061944901923733			0.5334482887456348
-0.5011944901923733			0.5327624203352618
-0.49619449019237327			0.5320845205913975
-0.49119449019237327			0.5314145523217036
-0.48619449019237326			0.5307524788367229
-0.48119449019237326			0.5300982639454851
-0.47619449019237325			0.529451871951181
-0.47119449019237325			0.5288132676469073
-0.46619449019237325			0.5281824163114777
-0.46119449019237324			0.5275592837053023
-0.45619449019237324			0.5269438360663331
-0.45119449019237323			0.5263360401060747
-0.4461944901923732			0.5257358630056607
-0.4411944901923732			0.5251432724119921
-0.4361944901923732			0.5245582364339408
-0.4311944901923732			0.5239807236386139
-0.4261944901923732			0.5234107030476803
-0.4211944901923732			0.5228481441337578
-0.4161944901923732			0.5222930168168599
-0.4111944901923732			0.5217452914609028
-0.4061944901923732			0.5212049388702698
-0.4011944901923732			0.5206719302864345
-0.3961944901923732			0.5201462373846413
-0.3911944901923732			0.519627832270641
-0.3861944901923732			0.5191166874774842
-0.38119449019237317			0.5186127759623687
-0.37619449019237317			0.5181160711035416
-0.37119449019237316			0.5176265466972563
-0.36619449019237316			0.5171441769547811
-0.36119449019237315			0.5166689364994628
-0.35619449019237315			0.5162008003638404
-0.35119449019237314			0.5157397439868119
-0.34619449019237314			0.5152857432108515
-0.34119449019237313			0.514838774279277
-0.33619449019237313			0.5143988138335684
-0.3311944901923731			0.5139658389107343
-0.3261944901923731			0.5135398269407286
-0.3211944901923731			0.5131207557439148
-0.3161944901923731			0.5127086035285786
-0.3111944901923731			0.5123033488884876
-0.3061944901923731			0.5119049708004986
-0.3011944901923731			0.5115134486222106
-0.2961944901923731			0.5111287620896646
-0.2911944901923731			0.5107508913150883
-0.2861944901923731			0.5103798167846864
-0.2811944901923731			0.5100155193564755
-0.2761944901923731			0.5096579802581637
-0.27119449019237307			0.509307181085073
-0.26619449019237307			0.5089631037981068
-0.26119449019237306			0.5086257307217592
-0.25619449019237306			0.5082950445421678
-0.25119449019237305			0.5079710283052081
-0.24619449019237305			0.5076536654146314
-0.24119449019237305			0.5073429396302424
-0.23619449019237304			0.5070388350661194
-0.23119449019237304			0.5067413361888755
-0.22619449019237303			0.50645042781596
-0.22119449019237303			0.5061660951139993
-0.21619449019237302			0.5058883235971805
-0.21119449019237302			0.5056170991256712
-0.20619449019237301			0.5053524079040814
-0.201194490192373			0.5050942364799635
-0.196194490192373			0.5048425717423508
-0.191194490192373			0.5045974009203351
-0.186194490192373			0.504358711581683
-0.181194490192373			0.5041264916314886
-0.176194490192373			0.503900729310866
-0.17119449019237298			0.5036814131956784
-0.16619449019237298			0.5034685321953034
-0.16119449019237297			0.5032620755514382
-0.15619449019237297			0.5030620328369383
-0.15119449019237297			0.5028683939546957
-0.14619449019237296			0.5026811491365516
-0.14119449019237296			0.5025002889422465
-0.13619449019237295			0.5023258042584052
-0.13119449019237295			0.5021576862975593
-0.12619449019237294			0.5019959265972032
-0.12119449019237294			0.5018405170188877
-0.11619449019237293			0.5016914497473479
-0.11119449019237293			0.5015487172896657
-0.10619449019237293			0.5014123124744684
-0.10119449019237292			0.501282228451162
-0.09619449019237292			0.5011584586891983
-0.09119449019237291			0.5010409969773779
-0.08619449019237291			0.5009298374231862
-0.0811944901923729			0.5008249744521653
-0.0761944901923729			0.5007264028073187
-0.0711944901923729			0.5006341175485514
-0.06619449019237289			0.5005481140521423
-0.06119449019237289			0.500468388010253
-0.056194490192372895			0.5003949354304676
-0.0511944901923729			0.5003277526353688
-0.0461944901923729			0.5002668362621453
-0.0411944901923729			0.500212183262235
-0.036194490192372905			0.5001637909010003
-0.031194490192372904			0.500121656757437
-0.026194490192372903			0.5000857787239172
-0.021194490192372902			0.5000561550059652
-0.0161944901923729			0.5000327841220666
-0.0111944901923729			0.5000156649035111
-0.0061944901923729			0.5000047964942679
-0.0011944901923729			0.5000001783508948
0.0038055098076271			0.5000018102424814
0.0088055098076271			0.5000096922506226
0.013805509807627101			0.5000238247694296
0.018805509807627102			0.50004420850557
0.023805509807627103			0.5000708444783435
0.028805509807627104			0.5001037340197904
0.0338055098076271			0.5001428787748332
0.0388055098076271			0.5001882807014507
0.0438055098076271			0.5002399420708873
0.048805509807627094			0.5002978654678933
0.05380550980762709			0.5003620537910008
0.05880550980762709			0.5004325102528314
0.06380550980762709			0.500509238380438
0.06880550980762709			0.5005922420156805
0.0738055098076271			0.5006815253156347
0.0788055098076271			0.5007770927530345
