Tabla de coordenadas (x,y) para trayectoria parabolica:
	 x [UA] 				 y [UA]
2.4142135623730945   	 -2.414213562373095
2.3733914936835427   	 -2.3972448743019736
2.333338624239404   	 -2.380478365471698
2.294035806674854   	 -2.363910238006026
2.2554644861520434   	 -2.3475367882749114
2.2176066784946316   	 -2.331354403986932
2.180444949257009   	 -2.315359561388688
2.143962393683744   	 -2.2995488225666114
2.108142617516241   	 -2.283918832846842
2.0729697186059237   	 -2.268466318289043
2.0384282692954243   	 -2.2531880832702025
2.0045032995313736   	 -2.2380810081546976
1.9711802806742376   	 -2.2231420470470336
1.9384451099725357   	 -2.208368225623859
1.9062840956704519   	 -2.193756639042012
1.8746839427194897   	 -2.1793044499195102
1.8436317390663226   	 -2.16500888638653
1.8131149424904396   	 -2.1508672402035605
1.7831213679665359   	 -2.136876864944041
1.7536391755278808   	 -2.1230351742389386
1.7246568586080877   	 -2.1093396400807944
1.6961632328398517   	 -2.0957877911849048
1.6681474252903135   	 -2.0823772114054235
1.640598864113687   	 -2.06910553820422
1.613507268602787   	 -2.0559704611704843
1.5868626396219625   	 -2.0429697205891046
1.5606552504048228   	 -2.0301011060559633
1.534875637700948   	 -2.017362455138366
1.5095145932565348   	 -2.0047516520788977
1.4845631556146626   	 -1.9922666265410673
1.4600126022215516   	 -1.9799053523951855
1.4358544418258226   	 -1.9676658465429657
1.4120804071584079   	 -1.9555461677794304
1.3886824478813242   	 -1.9435444156907369
1.3656527237940783   	 -1.9316587295866101
1.3429835982870117   	 -1.9198872874661221
1.320667632031372   	 -1.908228305015609
1.2986975768963847   	 -1.8966800346375687
1.277066370084035   	 -1.8852407645094222
1.255767128472697   	 -1.8739088176710716
1.2347931431611707   	 -1.8626825511402476
1.2141378742050288   	 -1.8515603550546382
1.1937949455375865   	 -1.8405406518398808
1.17375814006812   	 -1.829621895402501
1.154021394950297   	 -1.8188025703469288
1.1345787970141097   	 -1.808081191215765
1.1154245783548733   	 -1.7974563017524925
1.0965531120731509   	 -1.786926474185858
1.07795890815974   	 -1.7764903085351973
1.0596366095200875   	 -1.766146431935975
1.0415809881327767   	 -1.755893497984873
1.0237869413369327   	 -1.745730186103759
1.0062494882436295   	 -1.7356552009219053
0.9889637662665831   	 -1.7256672716758483
0.9719250277676348   	 -1.7157651516263144
0.955128636812684   	 -1.7059476174916297
0.9385700660339494   	 -1.6962134688970898
0.9222448935945886   	 -1.6865615278397574
0.9061488002518786   	 -1.6769906381681914
0.8902775665153155   	 -1.6674996650766174
0.8746270698961457   	 -1.6580874946130835
0.85919328224498   	 -1.6487530332011402
0.8439722671742836   	 -1.6394952071746254
0.8289601775626604   	 -1.630312962325124
0.8141532531379844   	 -1.621205263461715
0.7995478181365386   	 -1.6121710939826077
0.7851402790354429   	 -1.603209455458296
0.7709271223557639   	 -1.594319367225879
0.7569049125337962   	 -1.5854998659941892
0.7430702898581096   	 -1.5767500054594004
0.7294199684700496   	 -1.5680688559307907
0.7159507344254737   	 -1.5594555039663518
0.7026594438155843   	 -1.5509090520179347
0.689543020944812   	 -1.542428618085655
0.676598456563779   	 -1.5340133353812666
0.6638228061554423   	 -1.5256623520002335
0.6512131882726042   	 -1.5173748306022505
0.6387667829250301   	 -1.5091499480999429
0.6264808300144937   	 -1.500986895355515
0.6143526278161282   	 -1.4928848768851053
0.6023795315045232   	 -1.484843110570624
0.5905589517230674   	 -1.476860827378848
0.5788883531950944   	 -1.4689372710875672
0.5673652533754384   	 -1.4610716980185734
0.5559872211410659   	 -1.45326337677729
0.5447518755194913   	 -1.445511587998859
0.5336568844537357   	 -1.4378156241004865
0.5226999636026374   	 -1.4301747890398833
0.5118788751753561   	 -1.4225883980796106
0.5011914267989689   	 -1.415055777557174
0.4906354704180812   	 -1.4075762646606975
0.48020890122542975   	 -1.4001492072100243
0.46990965662247697   	 -1.392773963443083
0.45973571520904594   	 -1.3854499018073847
0.44968509580106764   	 -1.3781764007564978
0.4397558564755527   	 -1.3709528485513662
0.42994609364192765   	 -1.3637786430663354
0.4202539411389077   	 -1.35665319159976
0.4106775693561064   	 -1.3495759106890626
0.40121518437961196   	 -1.3425462259301257
0.3918650271607835   	 -1.335563571800896
0.3826253727075521   	 -1.32862739148909
0.3734945292975305   	 -1.3217371367238877
0.36447083771226274   	 -1.314892267611505
0.355552670491968   	 -1.3080922524745477
0.3467384312101529   	 -1.3013365676950392
0.3380265537674913   	 -1.2946246975610278
0.3294155017043851   	 -1.287956134116675
0.32090376753164923   	 -1.28133037701574
0.31248987207877094   	 -1.2747469333783636
0.3041723638592222   	 -1.2682053176510673
0.29594981845231544   	 -1.2617050514698873
0.28782083790111157   	 -1.2552456635265559
0.27978405012590724   	 -1.2488266894376556
0.2718381083528401   	 -1.2424476716166681
0.2639816905571708   	 -1.2361081591488432
0.2562134989208107   	 -1.2298077076688132
0.24853225930368122   	 -1.22354587924089
0.2409367207285035   	 -1.2173222422419658
0.23342565487862865   	 -1.2111363712469614
0.22599785560853466   	 -1.2049878469167519
0.2186521384666243   	 -1.1988762558885084
0.21138734022997377   	 -1.1928011906683977
0.20420231845068987   	 -1.1867622495265762
0.1970959510135473   	 -1.1807590363944265
0.19006713570458544   	 -1.1747911607639765
0.18311478979035645   	 -1.168858237589449
0.17623784960752514   	 -1.1629598871908913
0.16943527016252963   	 -1.1570957351598266
0.1627060247410237   	 -1.151265412266888
0.1560491045268272   	 -1.145468554371378
0.1494635182301218   	 -1.139704802332711
0.14294829172463636   	 -1.133973801923692
0.1365024676935748   	 -1.1282752037455888
0.13012510528404575   	 -1.12260866314495
0.12381527976976293   	 -1.1169738401321339
0.11757208222178962   	 -1.1113703993015016
0.11139461918710936   	 -1.1057980097532363
0.10528201237481111   	 -1.1002563450167522
0.09923339834968348   	 -1.094745082975652
0.09324792823301845   	 -1.0892639057942006
0.08732476741043216   	 -1.0838124998452752
0.08146309524651482   	 -1.0783905556397595
0.07566210480612823   	 -1.0729977677573503
0.06992100258217444   	 -1.0676338347787357
0.06423900822966494   	 -1.0622984592191262
0.05861535430592362   	 -1.0569913474630939
0.053049286016763106   	 -1.0517122097006986
0.04754006096847771   	 -1.0464607598648674
0.04208694892550136   	 -1.0412367155700009
0.03668923157358322   	 -1.0360397980517768
0.031346202288337906   	 -1.0308697321081244
0.026057165909031444   	 -1.0257262460413414
0.020821438517468215   	 -1.0206090716013336
0.015638347221847797   	 -1.0155179439299413
0.01050722994546461   	 -1.0104526015063395
0.005427435220126884   	 -1.00541278609348
0.00039832198417485255   	 -1.0003982426855564
-0.004580740615018343   	 -0.9954087194564668
-0.00951037341417629   	 -0.9904439677092528
-0.014391187422989529   	 -0.9855037418264939
-0.01922378400883334   	 -0.9805877992216369
-0.024008755077436956   	 -0.9756959002912362
-0.028746683249605266   	 -0.9708278083680905
-0.03343814203409115   	 -0.9659832896752498
-0.03808369599671391   	 -0.9611621132808826
-0.04268390092581657   	 -0.9563640510539733
-0.047239303994152285   	 -0.9515888776208429
-0.051750443917287524   	 -0.9468363703224677
-0.05621785110860735   	 -0.9421063091725824
-0.06064204783100582   	 -0.9373984768165502
-0.0650235483453421   	 -0.9327126584909823
-0.06936285905574086   	 -0.9280486419840923
-0.07366047865181315   	 -0.9234062175967701
-0.07791689824787217   	 -0.9187851781043574
-0.08213260151921618   	 -0.9141853187191136
-0.08630806483554898   	 -0.9096064370533568
-0.0904437573916058   	 -0.9050483330832605
-0.09454014133505212   	 -0.900510809113303
-0.09859767189171945   	 -0.8959936697413442
-0.10261679748824143   	 -0.8914967218243247
-0.10659795987215175   	 -0.8870197744445703
-0.11054159422950356   	 -0.8825626388766934
-0.11444812930006844   	 -0.8781251285550729
-0.11831798749017175   	 -0.873707059041906
-0.12215158498321957   	 -0.8693082479958194
-0.12594933184797089   	 -0.864928515141025
-0.12971163214460713   	 -0.8605676822370137
-0.13343888402865048   	 -0.8562255730487726
-0.13713147985278024   	 -0.8519020133175174
-0.14078980626659557   	 -0.847596830731928
-0.14441424431437208   	 -0.8433098548998794
-0.14800516953085768   	 -0.8390409173206541
-0.15156295203515271   	 -0.8347898513576303
-0.15508795662271802   	 -0.8305564922114352
-0.15858054285555287   	 -0.8263406768935523
-0.1620410651505849   	 -0.8221422442003756
-0.1654698728663116   	 -0.8179610346877024
-0.16886731038773317   	 -0.8137968906456535
-0.17223371720961497   	 -0.8096496560740145
-0.17556942801811679   	 -0.8055191766579902
-0.17887477277082528   	 -0.8014052997443611
-0.1821500767752252   	 -0.7973078743180387
-0.18539566076564432   	 -0.793226750979007
-0.18861184097870487   	 -0.7891617819196456
-0.1917989292273157   	 -0.7851128209024284
-0.194957232973236   	 -0.7810797232379857
-0.19808705539824267   	 -0.7770623457635266
-0.20118869547393203   	 -0.773060546821616
-0.2042624480301843   	 -0.7690741862392935
-0.20730860382232205   	 -0.7651031253075338
-0.21032744959698887   	 -0.7611472267610402
-0.2133192681567773   	 -0.7572063547583615
-0.21628433842363232   	 -0.753280374862332
-0.2192229355010571   	 -0.7493691540208242
-0.22213533073514646   	 -0.7454725605478093
-0.22502179177447296   	 -0.7415904641047201
-0.22788258262885072   	 -0.7377227356821114
-0.23071796372700024   	 -0.7338692475816109
-0.23352819197313737   	 -0.7300298733981544
-0.23631352080251042   	 -0.726204488002504
-0.23907420023590584   	 -0.7223929675240397
-0.24181047693314553   	 -0.7185951893338202
-0.24452259424559644   	 -0.714811032027911
-0.24721079226771303   	 -0.7110403754109705
-0.24987530788763318   	 -0.7072831004800932
-0.2525163748368466   	 -0.7035390894089018
-0.25513422373895595   	 -0.6998082255318867
-0.2577290821575485   	 -0.6960903933289864
-0.2603011746431969   	 -0.6923854784104055
-0.26285072277960797   	 -0.6886933675016654
-0.26537794522893565   	 -0.6850139484288832
-0.26788305777627597   	 -0.6813471101042757
-0.2703662733733606   	 -0.677692742511884
-0.2728278021814656   	 -0.6740507366935138
-0.2752678516135508   	 -0.6704209847348892
-0.2776866263756455   	 -0.6668033797520144
-0.28008432850749676   	 -0.6631978158777413
-0.28246115742249334   	 -0.6596041882485384
-0.2848173099468812   	 -0.656022392991457
-0.2871529803582846   	 -0.652452327211292
-0.28946836042354646   	 -0.6488938889779339
-0.29176363943590106   	 -0.6453469773139079
-0.29403900425149415   	 -0.6418114921820985
-0.29629463932526046   	 -0.6382873344736516
-0.29853072674617503   	 -0.6347744059960593
-0.3007474462718874   	 -0.6312726094614156
-0.3029449753627528   	 -0.627781848474846
-0.3051234892152711   	 -0.6243020275231034
-0.3072831607949468   	 -0.6208330519633329
-0.30942416086857877   	 -0.6173748280119967
-0.31154665803599335   	 -0.6139272627339605
-0.31365081876123013   	 -0.6104902640317367
-0.3157368074031919   	 -0.6070637406348827
-0.3178047862457681   	 -0.6036476020895502
-0.3198549155274432   	 -0.6002417587481845
-0.32188735347039926   	 -0.5968461217593706
-0.3239022563091221   	 -0.5934606030578238
-0.3258997783185212   	 -0.5900851153545205
-0.32788007184157203   	 -0.5867195721269709
-0.32984328731649115   	 -0.583363887609627
-0.33178957330345077   	 -0.5800179767844256
-0.3337190765108435   	 -0.5766817553714638
-0.3356319418211055   	 -0.5733551398198057
-0.337528312316105   	 -0.5700380472984149
-0.33940832930210585   	 -0.5667303956872157
-0.3412721323343139   	 -0.5634321035682758
-0.3431198592410126   	 -0.5601430902171113
-0.34495164614729806   	 -0.5568632755941121
-0.34676762749841794   	 -0.5535925803360844
-0.3485679360827247   	 -0.5503309257479091
-0.35035270305424726   	 -0.5470782337943133
-0.35212205795489127   	 -0.5438344270917552
-0.35387612873627133   	 -0.5405994289004173
-0.3556150417811859   	 -0.5373731631163098
-0.3573389219247381   	 -0.5341555542634784
-0.3590478924751098   	 -0.5309465274863189
-0.3607420752339973   	 -0.5277460085419929
-0.3624215905167117   	 -0.5245539237929466
-0.36408655717195204   	 -0.521370200199528
-0.36573709260125664   	 -0.5181947653127023
-0.36737331277813867   	 -0.5150275472668648
-0.3689953322669106   	 -0.5118684747727474
-0.37060326424120493   	 -0.5087174771104194
-0.372197220502195   	 -0.5055744841223792
-0.37377731149652205   	 -0.5024394262067378
-0.37534364633393336   	 -0.4993122343104896
-0.37689633280463775   	 -0.49619283992287166
-0.3784354773963812   	 -0.49308117506880905
-0.37996118531125034   	 -0.4899771723024445
-0.38147356048220576   	 -0.4868807647007513
-0.382972705589353   	 -0.4837918858572289
-0.38445872207595216   	 -0.4807104698756784
-0.3859317101641749   	 -0.4776364513640581
-0.3873917688706088   	 -0.4745697654284167
-0.3888389960215179   	 -0.47151034766690364
-0.39027348826785974   	 -0.46845813416385546
-0.3916953411000659   	 -0.4654130614839556
-0.39310464886258895   	 -0.4623750666664694
-0.39450150476821977   	 -0.4593440872195488
-0.39588600091217924   	 -0.4563200611146101
-0.397258228285989   	 -0.4533029267807808
-0.3986182767911239   	 -0.45029262309941537
-0.3999662352524506   	 -0.4472890893986782
-0.40130219143145557   	 -0.44429226544819433
-0.4026262320392664   	 -0.4413020914537651
-0.40393844274946955   	 -0.43831850805214795
-0.4052389082107286   	 -0.43534145630590104
-0.4065277120592054   	 -0.4323708776982895
-0.4078049369307883   	 -0.4294067141282532
-0.40907066447313034   	 -0.4264489079054362
-0.4103249753575006   	 -0.4234974017452748
-0.4115679492904516   	 -0.42055213876414516
-0.4127996650253062   	 -0.41761306247456814
-0.41402020037346704   	 -0.41468011678047206
-0.41522963221555065   	 -0.41175324597251045
-0.41642803651235033   	 -0.4088323947234359
-0.41761548831562945   	 -0.40591750808352794
-0.4187920617787489   	 -0.4030085314760746
-0.41995783016713034   	 -0.4001054106929063
-0.42111286586855956   	 -0.39720809188998246
-0.4222572404033305   	 -0.39431652158302855
-0.42339102443423415   	 -0.3914306466432232
-0.42451428777639383   	 -0.38855041429293613
-0.42562709940695065   	 -0.3856757721015138
-0.42672952747459897   	 -0.3828066679811129
-0.42782163930897776   	 -0.3799430501825826
-0.4289035014299168   	 -0.3770848672913915
-0.4299751795565427   	 -0.37423206822360194
-0.4310367386162447   	 -0.37138460222188885
-0.4320882427535046   	 -0.36854241885160327
-0.4331297553385917   	 -0.3657054679968795
-0.4341613389761239   	 -0.36287369985678536
-0.43518305551350017   	 -0.3600470649415154
-0.43619496604920316   	 -0.3572255140686254
-0.43719713094097584   	 -0.35440899835930817
-0.4381896098138734   	 -0.3515974692347106
-0.43917246156819184   	 -0.3487908784122891
-0.44014574438727766   	 -0.3459891779022065
-0.4411095157452165   	 -0.34319232000376565
-0.44206383241440605   	 -0.34040025730188267
-0.44300875047301347   	 -0.3376129426635969
-0.4439443253123185   	 -0.33483032923461836
-0.44487061164394615   	 -0.33205237043591135
-0.4457876635069877   	 -0.32927901996031383
-0.44669553427501396   	 -0.3265102317691927
-0.4475942766629826   	 -0.3237459600891335
-0.44848394273403797   	 -0.32098615940866354
-0.44936458390620954   	 -0.31823078447501113
-0.4502362509590065   	 -0.31547979029089523
-0.4510989940399126   	 -0.31273313211134945
-0.4519528626707821   	 -0.30999076544057863
-0.4527979057541365   	 -0.3072526460288455
-0.4536341715793667   	 -0.30451872986939016
-0.4544617078288392   	 -0.3017889731953796
-0.4552805615839093   	 -0.2990633324768876
-0.45609077933084163   	 -0.29634176441790455
-0.45689240696664024   	 -0.29362422595337656
-0.45768548980478924   	 -0.29091067424627365
-0.4584700725809045   	 -0.28820106668468615
-0.45924619945829914   	 -0.2854953608789496
-0.4600139140334625   	 -0.2827935146587966
-0.4607732593414549   	 -0.28009548607053647
-0.4615242778612193   	 -0.27740123337426137
-0.4622670115208096   	 -0.2747107150410787
-0.4630015017025394   	 -0.2720238897503698
-0.463727789248049   	 -0.26934071638707346
-0.4644459144632954   	 -0.26666115403899593
-0.4651559171234629   	 -0.2639851619941439
-0.4658578364777972   	 -0.26131269973808313
-0.46655171125436534   	 -0.25864372695132093
-0.46723757966473833   	 -0.2559782035067116
-0.46791547940860234   	 -0.2533160894668856
-0.46858544767829624   	 -0.25065734508170184
-0.469247521163277   	 -0.24800193078572175
-0.469901736054515   	 -0.2453498071957059
-0.47054812804881907   	 -0.2427009351081326
-0.4711867323530927   	 -0.24005527549673766
-0.4718175836885222   	 -0.2374127895100755
-0.47244071629469764   	 -0.23477343846910065
-0.473056163933667   	 -0.23213718386477014
-0.47366395989392523   	 -0.22950398735566555
-0.4742641369943393   	 -0.22687381076563548
-0.4748567275880079   	 -0.22424661608145668
-0.4754417635660592   	 -0.221622365450515
-0.4760192763613861   	 -0.21900102117850467
-0.47658929695231966   	 -0.21638254572714657
-0.47715185586624226   	 -0.2137669017119244
-0.4777069831831402   	 -0.21115405189983866
-0.47825470853909735   	 -0.2085439592071787
-0.47879506112973036   	 -0.20593658669731169
-0.4793280697135655   	 -0.20333189757848877
-0.4798537626153587   	 -0.20072985520166783
-0.4803721677293591   	 -0.1981304230583531
-0.4808833125225158   	 -0.19553356477845024
-0.48138722403763134   	 -0.1929392441281382
-0.48188392889645837   	 -0.19034742500775595
-0.4823734533027437   	 -0.18775807144970497
-0.4828558230452189   	 -0.1851711476163666
-0.48333106350053723   	 -0.1825866177980346
-0.48379919963615964   	 -0.18000444641086172
-0.48426025601318806   	 -0.17742459799482094
-0.48471425678914865   	 -0.17484703721168077
-0.485161225720723   	 -0.1722717288429939
-0.4856011861664316   	 -0.16969863778810018
-0.4860341610892656   	 -0.1671277290621419
-0.48646017305927125   	 -0.1645589677940931
-0.48687924425608503   	 -0.1619923192248008
-0.4872913964714214   	 -0.1594277487050396
-0.4876966511115124   	 -0.1568652216935776
-0.4880950291995014   	 -0.15430470375525568
-0.4884865513777893   	 -0.15174616055907747
-0.4888712379103353   	 -0.14918955787631155
-0.48924910868491167   	 -0.146634861578605
-0.4896201832153136   	 -0.14408203763610772
-0.48998448064352446   	 -0.14153105211560832
-0.4903420197418364   	 -0.13898187117868024
-0.4906928189149271   	 -0.13643446107983834
-0.4910368962018933   	 -0.13388878816470615
-0.4913742692782408   	 -0.13134481886819296
-0.49170495545783227   	 -0.1288025197126806
-0.4920289716947918   	 -0.1262618573062201
-0.4923463345853686   	 -0.12372279834073767
-0.49265706036975765   	 -0.12118530959024983
-0.49296116493388054   	 -0.1186493579090877
-0.4932586638111244   	 -0.11611491023012997
-0.4935495721840401   	 -0.11358193356304448
-0.49383390488600065   	 -0.11105039499253809
-0.4941116764028195   	 -0.10852026167661512
-0.49438290087432885   	 -0.10599150084484325
-0.4946475920959185   	 -0.10346407979662758
-0.49490576352003646   	 -0.10093796589949228
-0.49515742825764925   	 -0.09841312658736934
-0.4954025990796648   	 -0.0958895293588949
-0.495641288418317   	 -0.09336714177571244
-0.49587350836851135   	 -0.09084593146078265
-0.49609927068913384   	 -0.08832586609670019
-0.49631858680432167   	 -0.08580691342401679
-0.49653146780469654   	 -0.08328904123957051
-0.4967379244485619   	 -0.08077221739482131
-0.4969379671630617   	 -0.0782564097941922
-0.4971316060453044   	 -0.07574158639341644
-0.4973188508634483   	 -0.07322771519788994
-0.4974997110577536   	 -0.07071476426102934
-0.4976741957415947   	 -0.06820270168263481
-0.49784231370244086   	 -0.06569149560725834
-0.4980040734027969   	 -0.06318111422257641
-0.4981594829811122   	 -0.06067152575776751
-0.4983085502526522   	 -0.05816269848189414
-0.49845128271033445   	 -0.05565460070228881
-0.4985876875255317   	 -0.05314720076294449
