Tabla del radio en funcion del angulo para trayectoria parabolica de perihelio 0.25 UA:
   Angulo [rad]				 Radio [UA]
-2.356194490192345			1.7071067811865472
-2.351194490192345			1.6866957468417714
-2.346194490192345			1.666669312119702
-2.341194490192345			1.647017903337427
-2.3361944901923453			1.6277322430760217
-2.3311944901923454			1.6088033392473158
-2.3261944901923455			1.5902224746285045
-2.3211944901923456			1.571981196841872
-2.3161944901923457			1.5540713087581206
-2.311194490192346			1.5364848593029619
-2.306194490192346			1.5192141346477122
-2.301194490192346			1.5022516497656868
-2.296194490192346			1.4855901403371188
-2.2911944901923462			1.4692225549862679
-2.2861944901923463			1.453142047835226
-2.2811944901923464			1.4373419713597448
-2.2761944901923465			1.4218158695331613
-2.2711944901923466			1.4065574712452198
-2.2661944901923468			1.391560683983268
-2.261194490192347			1.3768195877639404
-2.256194490192347			1.3623284293040439
-2.251194490192347			1.3480816164199259
-2.246194490192347			1.3340737126451567
-2.2411944901923473			1.3202994320568435
-2.2361944901923474			1.3067536343013935
-2.2311944901923475			1.2934313198109813
-2.2261944901923476			1.2803276252024114
-2.2211944901923477			1.267437818850474
-2.216194490192348			1.2547572966282674
-2.211194490192348			1.2422815778073313
-2.206194490192348			1.2300063011107758
-2.201194490192348			1.2179272209129113
-2.1961944901923482			1.206040203579204
-2.1911944901923484			1.1943412239406621
-2.1861944901923485			1.1828263618970392
-2.1811944901923486			1.1714917991435059
-2.1761944901923487			1.160333816015686
-2.171194490192349			1.1493487884481923
-2.166194490192349			1.1385331850420175
-2.161194490192349			1.1278835642363485
-2.156194490192349			1.1173965715805854
-2.151194490192349			1.1070689371025144
-2.1461944901923493			1.0968974727687932
-2.1411944901923494			1.08687907003406
-2.1361944901923495			1.0770106974751485
-2.1311944901923496			1.0672893985070548
-2.1261944901923497			1.0577122891774366
-2.12119449019235			1.0482765560365754
-2.11619449019235			1.03897945407987
-2.11119449019235			1.0298183047600438
-2.10619449019235			1.0207904940663883
-2.1011944901923503			1.0118934706684664
-2.0961944901923504			1.0031247441218147
-2.0911944901923505			0.9944818831332916
-2.0861944901923506			0.9859625138838174
-2.0811944901923507			0.977564318406342
-2.076194490192351			0.9692850330169747
-2.071194490192351			0.9611224467972943
-2.066194490192351			0.9530744001259394
-2.061194490192351			0.9451387832576578
-2.0561944901923512			0.9373135349480729
-2.0511944901923513			0.92959664112249
-2.0461944901923514			0.9219861335871419
-2.0411944901923516			0.9144800887813302
-2.0361944901923517			0.9070766265689921
-2.0311944901923518			0.8997739090682694
-2.026194490192352			0.8925701395177215
-2.021194490192352			0.8854635611778819
-2.016194490192352			0.878452456266898
-2.011194490192352			0.8715351449290548
-2.0061944901923523			0.8647099842350248
-2.0011944901923524			0.8579753672127369
-1.9961944901923525			0.8513297219077922
-1.9911944901923526			0.844771510472406
-1.9861944901923527			0.8382992282818895
-1.9811944901923528			0.8319114030777212
-1.976194490192353			0.8256065941363021
-1.971194490192353			0.819383391462515
-1.9661944901923532			0.8132404150072469
-1.9611944901923533			0.8071763139080641
-1.9561944901923534			0.8011897657522615
-1.9511944901923535			0.7952794758615337
-1.9461944901923536			0.7894441765975472
-1.9411944901923537			0.7836826266877193
-1.9361944901923538			0.777993610570533
-1.931194490192354			0.7723759377597457
-1.926194490192354			0.7668284422268679
-1.921194490192354			0.7613499818013186
-1.9161944901923542			0.7559394375876781
-1.9111944901923543			0.7505957133994845
-1.9061944901923544			0.7453177352090405
-1.9011944901923545			0.7401044506127149
-1.8961944901923546			0.7349548283112385
-1.8911944901923547			0.729867857604523
-1.8861944901923549			0.7248425479005338
-1.881194490192355			0.7198779282377764
-1.876194490192355			0.7149730468209639
-1.8711944901923552			0.7101269705694538
-1.8661944901923553			0.7053387846780532
-1.8611944901923554			0.700607592189806
-1.8561944901923555			0.6959325135803918
-1.8511944901923556			0.691312686353776
-1.8461944901923557			0.6867472646487652
-1.8411944901923558			0.6822354188561314
-1.836194490192356			0.677776335245984
-1.831194490192356			0.6733692156050765
-1.8261944901923561			0.6690132768837457
-1.8211944901923562			0.6647077508521926
-1.8161944901923563			0.6604518837658246
-1.8111944901923565			0.6562449360393855
-1.8061944901923566			0.6520861819296111
-1.8011944901923567			0.6479749092261577
-1.7961944901923568			0.6439104189505558
-1.7911944901923569			0.6398920250629536
-1.786194490192357			0.63591905417642
-1.781194490192357			0.6319908452785854
-1.7761944901923572			0.6281067494604053
-1.7711944901923573			0.6242661296518406
-1.7661944901923574			0.6204683603642518
-1.7611944901923575			0.6167128274393143
-1.7561944901923576			0.6129989278042673
-1.7511944901923577			0.6093260692333121
-1.7461944901923578			0.6056936701149869
-1.741194490192358			0.6021011592253449
-1.736194490192358			0.5985479755067736
-1.7311944901923582			0.5950335678522928
-1.7261944901923583			0.5915573948951782
-1.7211944901923584			0.5881189248037626
-1.7161944901923585			0.5847176350812648
-1.7111944901923586			0.5813530123705118
-1.7061944901923587			0.5780245522634136
-1.7011944901923588			0.5747317591150609
-1.696194490192359			0.5714741458623182
-1.691194490192359			0.5682512338467874
-1.6861944901923591			0.5650625526420229
-1.6811944901923592			0.5619076398848815
-1.6761944901923593			0.5587860411108948
-1.6711944901923594			0.5556973095935547
-1.6661944901923595			0.5526410061874055
-1.6611944901923597			0.5496166991748418
-1.6561944901923598			0.5466239641165093
-1.6511944901923599			0.5436623837052161
-1.64619449019236			0.5407315476232574
-1.64119449019236			0.5378310524030642
-1.6361944901923602			0.5349605012910872
-1.6311944901923603			0.5321195041148324
-1.6261944901923604			0.5293076771529618
-1.6211944901923605			0.5265246430083815
-1.6161944901923606			0.5237700304842389
-1.6111944901923607			0.5210434744627507
-1.6061944901923608			0.5183446157867916
-1.601194490192361			0.515673101144169
-1.596194490192361			0.5130285829545157
-1.5911944901923611			0.510410719258734
-1.5861944901923613			0.5078191736109239
-1.5811944901923614			0.5052536149727324
-1.5761944901923615			0.5027137176100634
-1.5711944901923616			0.5001991609920874
-1.5661944901923617			0.4977096296924908
-1.5611944901923618			0.49524481329291187
-1.556194490192362			0.4928044062885052
-1.551194490192362			0.4903881079955833
-1.546194490192362			0.48799562246128153
-1.5411944901923622			0.4856266583751974
-1.5361944901923623			0.48328092898295444
-1.5311944901923624			0.48095815200164305
-1.5261944901923625			0.47865804953709173
-1.5211944901923626			0.47638034800292384
-1.5161944901923627			0.4741247780413563
-1.5111944901923628			0.4718910744456964
-1.506194490192363			0.4696789760844971
-1.501194490192363			0.4674882258273289
-1.4961944901923632			0.4653185704721295
-1.4911944901923633			0.4631697606740934
-1.4861944901923634			0.46104155087606397
-1.4811944901923635			0.45893369924039185
-1.4761944901923636			0.45684596758222557
-1.4711944901923637			0.4547781213041971
-1.4661944901923638			0.4527299293324739
-1.461194490192364			0.4507011640541403
-1.456194490192364			0.44869160125587937
-1.4511944901923641			0.4467010200639241
-1.4461944901923642			0.4447292028852482
-1.4411944901923643			0.4427759353499658
-1.4361944901923644			0.4408410062549142
-1.4311944901923646			0.43892420750839023
-1.4261944901923647			0.43702533407601457
-1.4211944901923648			0.43514418392769644
-1.4161944901923649			0.4332805579856747
-1.411194490192365			0.43143426007360985
-1.406194490192365			0.4296050968667022
-1.4011944901923652			0.42779287784281395
-1.3961944901923653			0.4259974152345712
-1.3911944901923654			0.42421852398242366
-1.3861944901923655			0.422456021688641
-1.3811944901923656			0.42070972857222355
-1.3761944901923657			0.4189794674247075
-1.3711944901923658			0.4172650635668442
-1.366194490192366			0.4155663448061334
-1.361194490192366			0.4138831413951925
-1.3561944901923662			0.4122152859909416
-1.3511944901923663			0.41056261361458735
-1.3461944901923664			0.4089249616123874
-1.3411944901923665			0.40730216961717786
-1.3361944901923666			0.40569407951064757
-1.3311944901923667			0.40410053538634216
-1.3261944901923668			0.40252138351338207
-1.321194490192367			0.40095647230087866
-1.316194490192367			0.399405652263034
-1.3111944901923671			0.3978687759849079
-1.3061944901923672			0.39634569808883896
-1.3011944901923673			0.3948362752015056
-1.2961944901923674			0.3933403659216114
-1.2911944901923675			0.39185783078818387
-1.2861944901923676			0.3903885322494714
-1.2811944901923678			0.38893233463242677
-1.2761944901923679			0.38748910411276355
-1.271194490192368			0.3860587086855746
-1.266194490192368			0.3846410181364999
-1.2611944901923682			0.3832359040134313
-1.2561944901923683			0.3818432395987448
-1.2511944901923684			0.38046289988204707
-1.2461944901923685			0.3790947615334272
-1.2411944901923686			0.3777387028772018
-1.2361944901923687			0.3763946038661435
-1.2311944901923688			0.37506234605618344
-1.226194490192369			0.3737418125815767
-1.221194490192369			0.372432888130522
-1.2161944901923691			0.37113545892122574
-1.2111944901923692			0.36984941267840155
-1.2061944901923694			0.368574638610196
-1.2011944901923695			0.3673110273855322
-1.1961944901923696			0.366058471111862
-1.1911944901923697			0.3648168633133197
-1.1861944901923698			0.3635860989092672
-1.1811944901923699			0.36236607419322464
-1.17619449019237			0.3611566868121773
-1.17119449019237			0.3599578357462516
-1.1661944901923702			0.35876942128875333
-1.1611944901923703			0.3575913450265594
-1.1561944901923704			0.3564235098208577
-1.1511944901923705			0.3552658197882268
-1.1461944901923706			0.3541181802820494
-1.1411944901923707			0.352980497874253
-1.1361944901923708			0.35185268033736977
-1.131194490192371			0.35073463662691245
-1.126194490192371			0.34962627686405623
-1.1211944901923712			0.3485275123186236
-1.1161944901923713			0.34743825539236445
-1.1111944901923714			0.3463584196025266
-1.1061944901923715			0.34528791956571064
-1.1011944901923716			0.3442266709820033
-1.0961944901923717			0.3431745906193849
-1.0911944901923718			0.342131596298404
-1.086194490192372			0.341097606877116
-1.081194490192372			0.3400725422362784
-1.0761944901923721			0.33905632326480034
-1.0711944901923722			0.33804887184543897
-1.0661944901923723			0.33705011084073944
-1.0611944901923724			0.33605996407921396
-1.0561944901923725			0.33507835634175437
-1.0511944901923727			0.33410521334827464
-1.0461944901923728			0.3331404617445782
-1.0411944901923729			0.3321840290894472
-1.036194490192373			0.3312358438419475
-1.031194490192373			0.330295835348947
-1.0261944901923732			0.32936393383284307
-1.0211944901923733			0.32844007037949374
-1.0161944901923734			0.327524176926351
-1.0111944901923735			0.326616186250791
-1.0061944901923736			0.3257160319586377
-1.0011944901923737			0.3248236484728763
-0.9961944901923737			0.3239389710225544
-0.9911944901923737			0.32306193563186436
-0.9861944901923737			0.322192479109407
-0.9811944901923737			0.321330539037631
-0.9761944901923737			0.3204760537624451
-0.9711944901923737			0.3196289623830013
-0.9661944901923737			0.3187892047416441
-0.9611944901923737			0.317956721414024
-0.9561944901923737			0.3171314536993716
-0.9511944901923737			0.31631334361093066
-0.9461944901923737			0.3155023338665447
-0.9411944901923737			0.3146983678793975
-0.9361944901923737			0.31390138974890247
-0.9311944901923737			0.313111344251739
-0.9261944901923737			0.3123281768330333
-0.9211944901923736			0.3115518335976811
-0.9161944901923736			0.31078226130180936
-0.9111944901923736			0.31001940734437483
-0.9061944901923736			0.3092632197588971
-0.9011944901923736			0.3085136472053235
-0.8961944901923736			0.30777063896202383
-0.8911944901923736			0.30703414491791253
-0.8861944901923736			0.3063041155646956
-0.8811944901923736			0.3055805019892411
-0.8761944901923736			0.3048632558660702
-0.8711944901923736			0.30415232944996706
-0.8661944901923736			0.3034476755687055
-0.8611944901923736			0.3027492476158901
-0.8561944901923736			0.30205699954391035
-0.8511944901923736			0.3013708858570055
-0.8461944901923736			0.30069086160443803
-0.8411944901923736			0.30001688237377466
-0.8361944901923736			0.2993489042842722
-0.8311944901923736			0.2986868839803668
-0.8261944901923736			0.2980307786252652
-0.8211944901923736			0.2973805458946357
-0.8161944901923736			0.2967361439703973
-0.8111944901923736			0.29609753153460583
-0.8061944901923735			0.2954646677634348
-0.8011944901923735			0.29483751232124966
-0.7961944901923735			0.2942160253547742
-0.7911944901923735			0.29360016748734685
-0.7861944901923735			0.2929898998132665
-0.7811944901923735			0.2923851838922247
-0.7761944901923735			0.2917859817438248
-0.7711944901923735			0.2911922558421852
-0.7661944901923735			0.2906039691106256
-0.7611944901923735			0.2900210849164348
-0.7561944901923735			0.28944356706572016
-0.7511944901923735			0.28887137979833477
-0.7461944901923735			0.288304487782883
-0.7411944901923735			0.28774285611180306
-0.7361944901923735			0.28718645029652473
-0.7311944901923735			0.2866352362627005
-0.7261944901923735			0.2860891803455111
-0.7211944901923735			0.2855482492850416
-0.7161944901923735			0.2850124102217287
-0.7111944901923735			0.28448163069187765
-0.7061944901923735			0.2839558786232476
-0.7011944901923735			0.28343512233070417
-0.6961944901923734			0.2829193305119381
-0.6911944901923734			0.28240847224325
-0.6861944901923734			0.2819025169753984
-0.6811944901923734			0.281401434529512
-0.6761944901923734			0.28090519509306333
-0.6711944901923734			0.28041376921590405
-0.6661944901923734			0.2799271278063612
-0.6611944901923734			0.2794452421273918
-0.6561944901923734			0.278968083792797
-0.6511944901923734			0.2784956247634933
-0.6461944901923734			0.27802783734384073
-0.6411944901923734			0.2775646941780269
-0.6361944901923734			0.2771061682465062
-0.6311944901923734			0.27665223286249296
-0.6261944901923734			0.2762028616685087
-0.6211944901923734			0.275758028632981
-0.6161944901923734			0.27531770804689526
-0.6111944901923734			0.27488187452049684
-0.6061944901923734			0.2744505029800437
-0.6011944901923734			0.274023568664609
-0.5961944901923734			0.27360104712293176
-0.5911944901923734			0.27318291421031665
-0.5861944901923734			0.2727691460855804
-0.5811944901923733			0.27235971920804536
-0.5761944901923733			0.27195461033457924
-0.5711944901923733			0.2715537965166799
-0.5661944901923733			0.2711572550976054
-0.5611944901923733			0.2707649637095477
-0.5561944901923733			0.27037690027085043
-0.5511944901923733			0.26999304298326876
-0.5461944901923733			0.2696133703292725
-0.5411944901923733			0.26923786106939035
-0.5361944901923733			0.2688664942395952
-0.5311944901923733			0.26849924914873036
-0.5261944901923733			0.2681361053759755
-0.5211944901923733			0.2677770427683523
-0.5161944901923733			0.26742204143826864
-0.5111944901923733			0.2670710817611014
-0.5061944901923733			0.2667241443728174
-0.5011944901923733			0.2663812101676309
-0.49619449019237327			0.2660422602956988
-0.49119449019237327			0.2657072761608518
-0.48619449019237326			0.26537623941836147
-0.48119449019237326			0.26504913197274255
-0.47619449019237325			0.2647259359755905
-0.47119449019237325			0.26440663382345364
-0.46619449019237325			0.26409120815573883
-0.46119449019237324			0.2637796418526511
-0.45619449019237324			0.26347191803316655
-0.45119449019237323			0.26316802005303735
-0.4461944901923732			0.26286793150283033
-0.4411944901923732			0.26257163620599605
-0.4361944901923732			0.2622791182169704
-0.4311944901923732			0.26199036181930696
-0.4261944901923732			0.26170535152384017
-0.4211944901923732			0.2614240720668789
-0.4161944901923732			0.26114650840842996
-0.4111944901923732			0.2608726457304514
-0.4061944901923732			0.2606024694351349
-0.4011944901923732			0.2603359651432173
-0.3961944901923732			0.26007311869232064
-0.3911944901923732			0.2598139161353205
-0.3861944901923732			0.2595583437387421
-0.38119449019237317			0.2593063879811843
-0.37619449019237317			0.2590580355517708
-0.37119449019237316			0.25881327334862814
-0.36619449019237316			0.25857208847739055
-0.36119449019237315			0.2583344682497314
-0.35619449019237315			0.2581004001819202
-0.35119449019237314			0.25786987199340594
-0.34619449019237314			0.25764287160542576
-0.34119449019237313			0.2574193871396385
-0.33619449019237313			0.2571994069167842
-0.3311944901923731			0.25698291945536716
-0.3261944901923731			0.2567699134703643
-0.3211944901923731			0.2565603778719574
-0.3161944901923731			0.2563543017642893
-0.3111944901923731			0.2561516744442438
-0.3061944901923731			0.2559524854002493
-0.3011944901923731			0.2557567243111053
-0.2961944901923731			0.2555643810448323
-0.2911944901923731			0.25537544565754416
-0.2861944901923731			0.2551899083923432
-0.2811944901923731			0.25500775967823774
-0.2761944901923731			0.25482899012908183
-0.27119449019237307			0.2546535905425365
-0.26619449019237307			0.2544815518990534
-0.26119449019237306			0.2543128653608796
-0.25619449019237306			0.2541475222710839
-0.25119449019237305			0.25398551415260406
-0.24619449019237305			0.2538268327073157
-0.24119449019237305			0.2536714698151212
-0.23619449019237304			0.2535194175330597
-0.23119449019237304			0.25337066809443776
-0.22619449019237303			0.25322521390798
-0.22119449019237303			0.2530830475569997
-0.21619449019237302			0.25294416179859025
-0.21119449019237302			0.2528085495628356
-0.20619449019237301			0.2526762039520407
-0.201194490192373			0.25254711823998177
-0.196194490192373			0.2524212858711754
-0.191194490192373			0.25229870046016756
-0.186194490192373			0.2521793557908415
-0.181194490192373			0.2520632458157443
-0.176194490192373			0.251950364655433
-0.17119449019237298			0.2518407065978392
-0.16619449019237298			0.2517342660976517
-0.16119449019237297			0.2516310377757191
-0.15619449019237297			0.25153101641846914
-0.15119449019237297			0.25143419697734787
-0.14619449019237296			0.2513405745682758
-0.14119449019237296			0.25125014447112326
-0.13619449019237295			0.2511629021292026
-0.13119449019237295			0.25107884314877965
-0.12619449019237294			0.2509979632986016
-0.12119449019237294			0.2509202585094438
-0.11619449019237293			0.25084572487367396
-0.11119449019237293			0.25077435864483283
-0.10619449019237293			0.2507061562372342
-0.10119449019237292			0.250641114225581
-0.09619449019237292			0.25057922934459914
-0.09119449019237291			0.25052049848868896
-0.08619449019237291			0.2504649187115931
-0.0811944901923729			0.25041248722608267
-0.0761944901923729			0.25036320140365936
-0.0711944901923729			0.2503170587742757
-0.06619449019237289			0.25027405702607114
-0.06119449019237289			0.2502341940051265
-0.056194490192372895			0.2501974677152338
-0.0511944901923729			0.2501638763176844
-0.0461944901923729			0.25013341813107265
-0.0411944901923729			0.2501060916311175
-0.036194490192372905			0.25008189545050014
-0.031194490192372904			0.2500608283787185
-0.026194490192372903			0.2500428893619586
-0.021194490192372902			0.2500280775029826
-0.0161944901923729			0.2500163920610333
-0.0111944901923729			0.25000783245175556
-0.0061944901923729			0.25000239824713394
-0.0011944901923729			0.2500000891754474
0.0038055098076271			0.2500009051212407
0.0088055098076271			0.2500048461253113
0.013805509807627101			0.2500119123847148
0.018805509807627102			0.250022104252785
0.023805509807627103			0.25003542223917175
0.028805509807627104			0.2500518670098952
0.0338055098076271			0.2500714393874166
0.0388055098076271			0.25009414035072536
0.0438055098076271			0.25011997103544364
0.048805509807627094			0.25014893273394667
0.05380550980762709			0.2501810268955004
