Tabla del radio en funcion del angulo para trayectoria parabolica de perihelio 0.75 UA:
   Angulo [rad]				 Radio [UA]
-2.356194490192345			5.121320343559641
-2.351194490192345			5.060087240525314
-2.346194490192345			5.000007936359106
-2.341194490192345			4.941053710012281
-2.3361944901923453			4.8831967292280645
-2.3311944901923454			4.8264100177419476
-2.3261944901923455			4.770667423885514
-2.3211944901923456			4.715943590525616
-2.3161944901923457			4.6622139262743625
-2.311194490192346			4.609454577908886
-2.306194490192346			4.557642403943136
-2.301194490192346			4.50675494929706
-2.296194490192346			4.456770421011356
-2.2911944901923462			4.407667664958804
-2.2861944901923463			4.359426143505678
-2.2811944901923464			4.312025914079235
-2.2761944901923465			4.265447608599484
-2.2711944901923466			4.219672413735659
-2.2661944901923468			4.174682051949803
-2.261194490192347			4.130458763291822
-2.256194490192347			4.086985287912132
-2.251194490192347			4.044244849259778
-2.246194490192347			4.00222113793547
-2.2411944901923473			3.96089829617053
-2.2361944901923474			3.9202609029041806
-2.2311944901923475			3.8802939594329438
-2.2261944901923476			3.8409828756072346
-2.2211944901923477			3.8023134565514223
-2.216194490192348			3.7642718898848027
-2.211194490192348			3.7268447334219936
-2.206194490192348			3.6900189033323274
-2.201194490192348			3.6537816627387336
-2.1961944901923482			3.618120610737612
-2.1911944901923484			3.5830236718219868
-2.1861944901923485			3.5484790856911177
-2.1811944901923486			3.5144753974305174
-2.1761944901923487			3.481001448047058
-2.171194490192349			3.4480463653445774
-2.166194490192349			3.4155995551260525
-2.161194490192349			3.383650692709046
-2.156194490192349			3.352189714741756
-2.151194490192349			3.321206811307543
-2.1461944901923493			3.29069241830638
-2.1411944901923494			3.26063721010218
-2.1361944901923495			3.2310320924254454
-2.1311944901923496			3.2018681955211643
-2.1261944901923497			3.17313686753231
-2.12119449019235			3.1448296681097263
-2.11619449019235			3.11693836223961
-2.11119449019235			3.0894549142801315
-2.10619449019235			3.062371482199165
-2.1011944901923503			3.0356804120053993
-2.0961944901923504			3.009374232365444
-2.0911944901923505			2.9834456493998744
-2.0861944901923506			2.957887541651452
-2.0811944901923507			2.932692955219026
-2.076194490192351			2.907855099050924
-2.071194490192351			2.883367340391883
-2.066194490192351			2.859223200377818
-2.061194490192351			2.835416349772973
-2.0561944901923512			2.8119406048442186
-2.0511944901923513			2.78878992336747
-2.0461944901923514			2.7659584007614257
-2.0411944901923516			2.7434402663439905
-2.0361944901923517			2.7212298797069763
-2.0311944901923518			2.699321727204808
-2.026194490192352			2.6777104185531644
-2.021194490192352			2.6563906835336457
-2.016194490192352			2.635357368800694
-2.011194490192352			2.6146054347871646
-2.0061944901923523			2.594129952705074
-2.0011944901923524			2.573926101638211
-1.9961944901923525			2.553989165723377
-1.9911944901923526			2.534314531417218
-1.9861944901923527			2.5148976848456686
-1.9811944901923528			2.4957342092331634
-1.976194490192353			2.4768197824089064
-1.971194490192353			2.458150174387545
-1.9661944901923532			2.4397212450217407
-1.9611944901923533			2.4215289417241923
-1.9561944901923534			2.4035692972567846
-1.9511944901923535			2.385838427584601
-1.9461944901923536			2.3683325297926414
-1.9411944901923537			2.351047880063158
-1.9361944901923538			2.3339808317115986
-1.931194490192354			2.317127813279237
-1.926194490192354			2.3004853266806036
-1.921194490192354			2.284049945403956
-1.9161944901923542			2.2678183127630342
-1.9111944901923543			2.2517871401984535
-1.9061944901923544			2.235953205627122
-1.9011944901923545			2.2203133518381444
-1.8961944901923546			2.2048644849337156
-1.8911944901923547			2.189603572813569
-1.8861944901923549			2.1745276437016017
-1.881194490192355			2.1596337847133293
-1.876194490192355			2.144919140462892
-1.8711944901923552			2.130380911708362
-1.8661944901923553			2.1160163540341594
-1.8611944901923554			2.101822776569418
-1.8561944901923555			2.0877975407411755
-1.8511944901923556			2.073938059061328
-1.8461944901923557			2.060241793946296
-1.8411944901923558			2.0467062565683944
-1.836194490192356			2.033329005737952
-1.831194490192356			2.0201076468152293
-1.8261944901923561			2.007039830651237
-1.8211944901923562			1.9941232525565777
-1.8161944901923563			1.9813556512974737
-1.8111944901923565			1.9687348081181564
-1.8061944901923566			1.9562585457888333
-1.8011944901923567			1.943924727678473
-1.7961944901923568			1.9317312568516671
-1.7911944901923569			1.9196760751888609
-1.786194490192357			1.9077571625292602
-1.781194490192357			1.8959725358357562
-1.7761944901923572			1.884320248381216
-1.7711944901923573			1.872798388955522
-1.7661944901923574			1.8614050810927554
-1.7611944901923575			1.8501384823179432
-1.7561944901923576			1.838996783412802
-1.7511944901923577			1.8279782076999365
-1.7461944901923578			1.8170810103449608
-1.741194490192358			1.8063034776760347
-1.736194490192358			1.795643926520321
-1.7311944901923582			1.7851007035568782
-1.7261944901923583			1.7746721846855347
-1.7211944901923584			1.7643567744112876
-1.7161944901923585			1.7541529052437945
-1.7111944901923586			1.7440590371115356
-1.7061944901923587			1.7340736567902408
-1.7011944901923588			1.7241952773451827
-1.696194490192359			1.7144224375869546
-1.691194490192359			1.7047537015403622
-1.6861944901923591			1.6951876579260685
-1.6811944901923592			1.6857229196546444
-1.6761944901923593			1.6763581233326845
-1.6711944901923594			1.667091928780664
-1.6661944901923595			1.6579230185622165
-1.6611944901923597			1.6488500975245253
-1.6561944901923598			1.6398718923495277
-1.6511944901923599			1.6309871511156482
-1.64619449019236			1.6221946428697722
-1.64119449019236			1.6134931572091924
-1.6361944901923602			1.6048815038732616
-1.6311944901923603			1.5963585123444974
-1.6261944901923604			1.5879230314588852
-1.6211944901923605			1.5795739290251447
-1.6161944901923606			1.5713100914527165
-1.6111944901923607			1.5631304233882521
-1.6061944901923608			1.5550338473603746
-1.601194490192361			1.547019303432507
-1.596194490192361			1.5390857488635472
-1.5911944901923611			1.5312321577762023
-1.5861944901923613			1.5234575208327716
-1.5811944901923614			1.515760844918197
-1.5761944901923615			1.5081411528301902
-1.5711944901923616			1.5005974829762623
-1.5661944901923617			1.4931288890774723
-1.5611944901923618			1.4857344398787355
-1.556194490192362			1.4784132188655157
-1.551194490192362			1.47116432398675
-1.546194490192362			1.4639868673838445
-1.5411944901923622			1.4568799751255923
-1.5361944901923623			1.4498427869488633
-1.5311944901923624			1.4428744560049291
-1.5261944901923625			1.4359741486112751
-1.5211944901923626			1.4291410440087715
-1.5161944901923627			1.4223743341240689
-1.5111944901923628			1.415673223337089
-1.506194490192363			1.4090369282534914
-1.501194490192363			1.4024646774819869
-1.4961944901923632			1.3959557114163885
-1.4911944901923633			1.38950928202228
-1.4861944901923634			1.383124652628192
-1.4811944901923635			1.3768010977211755
-1.4761944901923636			1.3705379027466766
-1.4711944901923637			1.3643343639125913
-1.4661944901923638			1.3581897879974216
-1.461194490192364			1.3521034921624209
-1.456194490192364			1.346074803767638
-1.4511944901923641			1.3401030601917723
-1.4461944901923642			1.3341876086557445
-1.4411944901923643			1.3283278060498973
-1.4361944901923644			1.3225230187647425
-1.4311944901923646			1.3167726225251708
-1.4261944901923647			1.3110760022280437
-1.4211944901923648			1.3054325517830894
-1.4161944901923649			1.2998416739570242
-1.411194490192365			1.2943027802208296
-1.406194490192365			1.2888152906001065
-1.4011944901923652			1.2833786335284418
-1.3961944901923653			1.2779922457037136
-1.3911944901923654			1.272655571947271
-1.3861944901923655			1.267368065065923
-1.3811944901923656			1.2621291857166705
-1.3761944901923657			1.2569384022741226
-1.3711944901923658			1.2517951907005327
-1.366194490192366			1.2466990344184004
-1.361194490192366			1.2416494241855776
-1.3561944901923662			1.2366458579728248
-1.3511944901923663			1.231687840843762
-1.3461944901923664			1.2267748848371622
-1.3411944901923665			1.2219065088515337
-1.3361944901923666			1.2170822385319426
-1.3311944901923667			1.2123016061590266
-1.3261944901923668			1.2075641505401462
-1.321194490192367			1.202869416902636
-1.316194490192367			1.1982169567891021
-1.3111944901923671			1.1936063279547235
-1.3061944901923672			1.1890370942665167
-1.3011944901923673			1.1845088256045166
-1.2961944901923674			1.1800210977648342
-1.2911944901923675			1.1755734923645516
-1.2861944901923676			1.1711655967484143
-1.2811944901923678			1.1667970038972804
-1.2761944901923679			1.1624673123382905
-1.271194490192368			1.1581761260567238
-1.266194490192368			1.1539230544094998
-1.2611944901923682			1.149707712040294
-1.2561944901923683			1.1455297187962343
-1.2511944901923684			1.1413886996461413
-1.2461944901923685			1.1372842846002815
-1.2411944901923686			1.1332161086316053
-1.2361944901923687			1.1291838115984305
-1.2311944901923688			1.1251870381685503
-1.226194490192369			1.1212254377447302
-1.221194490192369			1.1172986643915659
-1.2161944901923691			1.1134063767636773
-1.2111944901923692			1.1095482380352046
-1.2061944901923694			1.105723915830588
-1.2011944901923695			1.1019330821565965
-1.1961944901923696			1.098175413335586
-1.1911944901923697			1.094450589939959
-1.1861944901923698			1.0907582967278016
-1.1811944901923699			1.087098222579674
-1.17619449019237			1.0834700604365317
-1.17119449019237			1.0798735072387549
-1.1661944901923702			1.07630826386626
-1.1611944901923703			1.0727740350796784
-1.1561944901923704			1.069270529462573
-1.1511944901923705			1.0657974593646804
-1.1461944901923706			1.0623545408461483
-1.1411944901923707			1.058941493622759
-1.1361944901923708			1.0555580410121093
-1.131194490192371			1.0522039098807374
-1.126194490192371			1.0488788305921688
-1.1211944901923712			1.045582536955871
-1.1161944901923713			1.0423147661770933
-1.1111944901923714			1.0390752588075798
-1.1061944901923715			1.035863758697132
-1.1011944901923716			1.03268001294601
-1.0961944901923717			1.0295237718581547
-1.0911944901923718			1.026394788895212
-1.086194490192372			1.0232928206313479
-1.081194490192372			1.0202176267088352
-1.0761944901923721			1.017168969794401
-1.0711944901923722			1.0141466155363168
-1.0661944901923723			1.0111503325222184
-1.0611944901923724			1.008179892237642
-1.0561944901923725			1.0052350690252632
-1.0511944901923727			1.0023156400448239
-1.0461944901923728			0.9994213852337346
-1.0411944901923729			0.9965520872683417
-1.036194490192373			0.9937075315258425
-1.031194490192373			0.9908875060468411
-1.0261944901923732			0.9880918014985292
-1.0211944901923733			0.9853202111384812
-1.0161944901923734			0.9825725307790529
-1.0111944901923735			0.979848558752373
-1.0061944901923736			0.977148095875913
-1.0011944901923737			0.974470945418629
-0.9961944901923737			0.9718169130676633
-0.9911944901923737			0.9691858068955931
-0.9861944901923737			0.9665774373282211
-0.9811944901923737			0.9639916171128928
-0.9761944901923737			0.9614281612873352
-0.9711944901923737			0.9588868871490039
-0.9661944901923737			0.9563676142249324
-0.9611944901923737			0.9538701642420719
-0.9561944901923737			0.9513943610981149
-0.9511944901923737			0.948940030832792
-0.9461944901923737			0.9465070015996341
-0.9411944901923737			0.9440951036381925
-0.9361944901923737			0.9417041692467074
-0.9311944901923737			0.939334032755217
-0.9261944901923737			0.9369845304990999
-0.9211944901923736			0.9346555007930434
-0.9161944901923736			0.9323467839054281
-0.9111944901923736			0.9300582220331245
-0.9061944901923736			0.9277896592766913
-0.9011944901923736			0.9255409416159704
-0.8961944901923736			0.9233119168860716
-0.8911944901923736			0.9211024347537377
-0.8861944901923736			0.9189123466940868
-0.8811944901923736			0.9167415059677232
-0.8761944901923736			0.9145897675982105
-0.8711944901923736			0.9124569883499012
-0.8661944901923736			0.9103430267061166
-0.8611944901923736			0.9082477428476703
-0.8561944901923736			0.9061709986317311
-0.8511944901923736			0.9041126575710164
-0.8461944901923736			0.9020725848133141
-0.8411944901923736			0.900050647121324
-0.8361944901923736			0.8980467128528166
-0.8311944901923736			0.8960606519411004
-0.8261944901923736			0.8940923358757956
-0.8211944901923736			0.8921416376839072
-0.8161944901923736			0.8902084319111919
-0.8111944901923736			0.8882925946038175
-0.8061944901923735			0.8863940032903044
-0.8011944901923735			0.8845125369637491
-0.7961944901923735			0.8826480760643226
-0.7911944901923735			0.8808005024620406
-0.7861944901923735			0.8789696994397995
-0.7811944901923735			0.877155551676674
-0.7761944901923735			0.8753579452314745
-0.7711944901923735			0.8735767675265557
-0.7661944901923735			0.8718119073318766
-0.7611944901923735			0.8700632547493045
-0.7561944901923735			0.8683307011971605
-0.7511944901923735			0.8666141393950042
-0.7461944901923735			0.8649134633486488
-0.7411944901923735			0.8632285683354093
-0.7361944901923735			0.8615593508895741
-0.7311944901923735			0.8599057087881016
-0.7261944901923735			0.8582675410365334
-0.7211944901923735			0.8566447478551247
-0.7161944901923735			0.855037230665186
-0.7111944901923735			0.853444892075633
-0.7061944901923735			0.8518676358697429
-0.7011944901923735			0.8503053669921125
-0.6961944901923734			0.8487579915358143
-0.6911944901923734			0.8472254167297499
-0.6861944901923734			0.8457075509261953
-0.6811944901923734			0.844204303588536
-0.6761944901923734			0.84271558527919
-0.6711944901923734			0.8412413076477122
-0.6661944901923734			0.8397813834190836
-0.6611944901923734			0.8383357263821754
-0.6561944901923734			0.836904251378391
-0.6511944901923734			0.8354868742904799
-0.6461944901923734			0.8340835120315222
-0.6411944901923734			0.8326940825340808
-0.6361944901923734			0.8313185047395185
-0.6311944901923734			0.8299566985874789
-0.6261944901923734			0.828608585005526
-0.6211944901923734			0.827274085898943
-0.6161944901923734			0.8259531241406857
-0.6111944901923734			0.8246456235614904
-0.6061944901923734			0.8233515089401311
-0.6011944901923734			0.8220707059938269
-0.5961944901923734			0.8208031413687952
-0.5911944901923734			0.81954874263095
-0.5861944901923734			0.8183074382567412
-0.5811944901923733			0.8170791576241361
-0.5761944901923733			0.8158638310037377
-0.5711944901923733			0.8146613895500396
-0.5661944901923733			0.8134717652928162
-0.5611944901923733			0.8122948911286432
-0.5561944901923733			0.8111307008125512
-0.5511944901923733			0.8099791289498063
-0.5461944901923733			0.8088401109878176
-0.5411944901923733			0.8077135832081711
-0.5361944901923733			0.8065994827187856
-0.5311944901923733			0.805497747446191
-0.5261944901923733			0.8044083161279264
-0.5211944901923733			0.8033311283050568
-0.5161944901923733			0.8022661243148058
-0.5111944901923733			0.8012132452833042
-0.5061944901923733			0.8001724331184521
-0.5011944901923733			0.7991436305028926
-0.49619449019237327			0.7981267808870963
-0.49119449019237327			0.7971218284825555
-0.48619449019237326			0.7961287182550845
-0.48119449019237326			0.7951473959182276
-0.47619449019237325			0.7941778079267715
-0.47119449019237325			0.7932199014703609
-0.46619449019237325			0.7922736244672165
-0.46119449019237324			0.7913389255579535
-0.45619449019237324			0.7904157540994996
-0.45119449019237323			0.7895040601591121
-0.4461944901923732			0.788603794508491
-0.4411944901923732			0.7877149086179882
-0.4361944901923732			0.7868373546509112
-0.4311944901923732			0.7859710854579208
-0.4261944901923732			0.7851160545715206
-0.4211944901923732			0.7842722162006367
-0.4161944901923732			0.7834395252252898
-0.4111944901923732			0.7826179371913541
-0.4061944901923732			0.7818074083054046
-0.4011944901923732			0.7810078954296518
-0.3961944901923732			0.7802193560769619
-0.3911944901923732			0.7794417484059615
-0.3861944901923732			0.7786750312162263
-0.38119449019237317			0.7779191639435529
-0.37619449019237317			0.7771741066553124
-0.37119449019237316			0.7764398200458844
-0.36619449019237316			0.7757162654321716
-0.36119449019237315			0.7750034047491942
-0.35619449019237315			0.7743012005457606
-0.35119449019237314			0.7736096159802178
-0.34619449019237314			0.7729286148162772
-0.34119449019237313			0.7722581614189156
-0.33619449019237313			0.7715982207503527
-0.3311944901923731			0.7709487583661015
-0.3261944901923731			0.770309740411093
-0.3211944901923731			0.7696811336158723
-0.3161944901923731			0.7690629052928679
-0.3111944901923731			0.7684550233327314
-0.3061944901923731			0.7678574562007479
-0.3011944901923731			0.7672701729333159
-0.2961944901923731			0.766693143134497
-0.2911944901923731			0.7661263369726324
-0.2861944901923731			0.7655697251770296
-0.2811944901923731			0.7650232790347132
-0.2761944901923731			0.7644869703872454
-0.27119449019237307			0.7639607716276094
-0.26619449019237307			0.7634446556971601
-0.26119449019237306			0.7629385960826388
-0.25619449019237306			0.7624425668132516
-0.25119449019237305			0.7619565424578122
-0.24619449019237305			0.7614804981219471
-0.24119449019237305			0.7610144094453635
-0.23619449019237304			0.7605582525991791
-0.23119449019237304			0.7601120042833133
-0.22619449019237303			0.7596756417239399
-0.22119449019237303			0.7592491426709991
-0.21619449019237302			0.7588324853957708
-0.21119449019237302			0.7584256486885068
-0.20619449019237301			0.7580286118561221
-0.201194490192373			0.7576413547199453
-0.196194490192373			0.7572638576135262
-0.191194490192373			0.7568961013805028
-0.186194490192373			0.7565380673725246
-0.181194490192373			0.756189737447233
-0.176194490192373			0.7558510939662991
-0.17119449019237298			0.7555221197935175
-0.16619449019237298			0.7552027982929552
-0.16119449019237297			0.7548931133271573
-0.15619449019237297			0.7545930492554074
-0.15119449019237297			0.7543025909320435
-0.14619449019237296			0.7540217237048275
-0.14119449019237296			0.7537504334133697
-0.13619449019237295			0.7534887063876078
-0.13119449019237295			0.7532365294463389
-0.12619449019237294			0.7529938898958046
-0.12119449019237294			0.7527607755283315
-0.11619449019237293			0.7525371746210218
-0.11119449019237293			0.7523230759344984
-0.10619449019237293			0.7521184687117025
-0.10119449019237292			0.7519233426767429
-0.09619449019237292			0.7517376880337975
-0.09119449019237291			0.7515614954660668
-0.08619449019237291			0.7513947561347792
-0.0811944901923729			0.751237461678248
-0.0761944901923729			0.7510896042109781
-0.0711944901923729			0.750951176322827
-0.06619449019237289			0.7508221710782135
-0.06119449019237289			0.7507025820153794
-0.056194490192372895			0.7505924031457015
-0.0511944901923729			0.7504916289530531
-0.0461944901923729			0.750400254393218
-0.0411944901923729			0.7503182748933526
-0.036194490192372905			0.7502456863515005
-0.031194490192372904			0.7501824851361556
-0.026194490192372903			0.7501286680858759
-0.021194490192372902			0.750084232508948
-0.0161944901923729			0.7500491761831001
-0.0111944901923729			0.7500234973552667
-0.0061944901923729			0.7500071947414018
-0.0011944901923729			0.7500002675263423
0.0038055098076271			0.750002715363722
0.0088055098076271			0.7500145383759339
0.013805509807627101			0.7500357371541444
0.018805509807627102			0.7500663127583549
0.023805509807627103			0.7501062667175151
0.028805509807627104			0.7501556010296856
0.0338055098076271			0.7502143181622497
0.0388055098076271			0.750282421052176
0.0438055098076271			0.7503599131063309
0.048805509807627094			0.75044679820184
0.05380550980762709			0.7505430806865013
0.05880550980762709			0.7506487653792471
0.06380550980762709			0.750763857570657
0.06880550980762709			0.7508883630235208
0.0738055098076271			0.751022287973452
0.0788055098076271			0.7511656391295517
