Tabla del radio en funcion del angulo para trayectoria parabolica de perihelio 0.22674 UA:
   Angulo [rad]				 Radio [UA]
-2.356194490192345			1.5482775662649508
-2.351194490192345			1.529765574555613
-2.346194490192345			1.5116023993200849
-2.341194490192345			1.4937793576109129
-2.3361944901923453			1.4762880351802286
-2.3311944901923454			1.4591202765637454
-2.3261944901923455			1.4422681755890685
-2.3211944901923456			1.4257240662877042
-2.3161944901923457			1.4094805141912652
-2.311194490192346			1.3935303079934143
-2.306194490192346			1.377866451560089
-2.301194490192346			1.3624821562714873
-2.296194490192346			1.3473708336801533
-2.2911944901923462			1.3325260884703456
-2.2861944901923463			1.3179417117046364
-2.2811944901923464			1.3036116743444341
-2.2761944901923465			1.289530121031796
-2.2711944901923466			1.2756913641205645
-2.2661944901923468			1.2620898779454646
-2.261194490192347			1.2487202933183834
-2.256194490192347			1.2355773922415956
-2.251194490192347			1.222656102828216
-2.246194490192347			1.2099514944206513
-2.2411944901923473			1.1974587728982746
-2.2361944901923474			1.1851732761659919
-2.2311944901923475			1.1730904698157676
-2.2261944901923476			1.161205942953579
-2.2211944901923477			1.149515404184626
-2.216194490192348			1.1380146777499736
-2.211194490192348			1.1266996998081371
-2.206194490192348			1.1155665148554292
-2.201194490192348			1.1046112722791739
-2.1961944901923482			1.0938302230381949
-2.1911944901923484			1.0832197164652229
-2.1861944901923485			1.0727761971861387
-2.1811944901923486			1.062496202151194
-2.1761944901923487			1.0523763577735865
-2.171194490192349			1.0424133771709725
-2.166194490192349			1.032604057505708
-2.161194490192349			1.0229452774197987
-2.156194490192349			1.0134339945607276
-2.151194490192349			1.0040672431944964
-2.1461944901923493			0.9948421319023848
-2.1411944901923494			0.985755841358091
-2.1361944901923495			0.9768056221820606
-2.1311944901923496			0.9679887928699584
-2.1261944901923497			0.9593027377923679
-2.12119449019235			0.9507449052629325
-2.11619449019235			0.9423128056722788
-2.11119449019235			0.9340040096851693
-2.10619449019235			0.9258161464984517
-2.1011944901923503			0.9177469021574723
-2.0961944901923504			0.909794017928721
-2.0911944901923505			0.90195528872657
-2.0861944901923506			0.894228561592067
-2.0811944901923507			0.8866117342218159
-2.076194490192351			0.8791027535450753
-2.071194490192351			0.871699614347274
-2.066194490192351			0.864400357938222
-2.061194490192351			0.8572030708633652
-2.0561944901923512			0.8501058836565042
-2.0511944901923513			0.8431069696324535
-2.0461944901923514			0.8362045437181942
-2.0411944901923516			0.8293968613211152
-2.0361944901923517			0.8226822172330132
-2.0311944901923518			0.8160589445685575
-2.026194490192352			0.8095254137369926
-2.021194490192352			0.8030800314458918
-2.016194490192352			0.7967212397358259
-2.011194490192352			0.7904475150448556
-2.0061944901923523			0.7842573673017981
-2.0011944901923524			0.7781493390472639
-1.9961944901923525			0.7721220045814913
-1.9911944901923526			0.7661739691380534
-1.9861944901923527			0.7603038680825425
-1.9811944901923528			0.75451036613537
-1.976194490192353			0.7487921566178606
-1.971194490192353			0.7431479607208427
-1.9661944901923532			0.7375765267949727
-1.9611944901923533			0.7320766296620578
-1.9561944901923534			0.7266470699466712
-1.9511944901923535			0.7212866734273766
-1.9461944901923536			0.7159942904069113
-1.9411944901923537			0.7107687951006938
-1.9361944901923538			0.7056090850430505
-1.931194490192354			0.700514080510579
-1.926194490192354			0.69548272396208
-1.921194490192354			0.690513979494524
-1.9161944901923542			0.6856068323145206
-1.9111944901923543			0.6807602882247964
-1.9061944901923544			0.6759733731251915
-1.9011944901923545			0.6712451325277079
-1.8961944901923546			0.6665746310851609
-1.8911944901923547			0.6619609521329981
-1.8861944901923549			0.6574031972438682
-1.881194490192355			0.6529004857945336
-1.876194490192355			0.6484519545447414
-1.8711944901923552			0.6440567572276719
-1.8661944901923553			0.6397140641516071
-1.8611944901923554			0.6354230618124663
-1.8561944901923555			0.6311829525168722
-1.8511944901923556			0.6269929540154207
-1.8461944901923557			0.6228522991458441
-1.8411944901923558			0.618760235485757
-1.836194490192356			0.6147160250146976
-1.831194490192356			0.6107189437851801
-1.8261944901923561			0.606768281602482
-1.8211944901923562			0.6028633417129046
-1.8161944901923563			0.5990034405002522
-1.8111944901923565			0.595187907190281
-1.8061944901923566			0.5914160835628801
-1.8011944901923567			0.587687323671756
-1.7961944901923568			0.584000993571396
-1.7911944901923569			0.5803564710510964
-1.786194490192357			0.576753145375846
-1.781194490192357			0.5731904170338658
-1.7761944901923572			0.5696676974906092
-1.7711944901923573			0.5661844089490333
-1.7661944901923574			0.5627399841159618
-1.7611944901923575			0.5593338659743605
-1.7561944901923576			0.5559655075613583
-1.7511944901923577			0.5526343717518448
-1.7461944901923578			0.5493399310474886
-1.741194490192358			0.5460816673710188
-1.736194490192358			0.5428590718656234
-1.7311944901923582			0.5396716446993154
-1.7261944901923583			0.5365188948741308
-1.7211944901923584			0.5334003400400205
-1.7161944901923585			0.5303155063133039
-1.7111944901923586			0.5272639280995595
-1.7061944901923587			0.5242451479208257
-1.7011944901923588			0.5212587162469956
-1.696194490192359			0.518304191331288
-1.691194490192359			0.5153811390496823
-1.6861944901923591			0.512489132744209
-1.6811944901923592			0.5096277530699921
-1.6761944901923593			0.5067965878459372
-1.6711944901923594			0.5039952319089703
-1.6661944901923595			0.5012232869717294
-1.6611944901923597			0.49848036148361446
-1.6561944901923598			0.4957660704951092
-1.6511944901923599			0.4930800355252828
-1.64619449019236			0.49042188443238954
-1.64119449019236			0.487791251287483
-1.6361944901923602			0.48518777625096443
-1.6311944901923603			0.48261110545198843
-1.6261944901923604			0.48006089087065024
-1.6211944901923605			0.47753679022288176
-1.6161944901923606			0.4750384668479853
-1.6111944901923607			0.47256558959873635
-1.6061944901923608			0.4701178327339885
-1.601194490192361			0.4676948758137155
-1.596194490192361			0.4652964035964276
-1.5911944901923611			0.4629221059389015
-1.5861944901923613			0.46057167769816354
-1.5811944901923614			0.4582448186356693
-1.5761944901923615			0.45594123332362313
-1.5711944901923616			0.4536606310533836
-1.5661944901923617			0.45140272574590146
-1.5611944901923618			0.44916723586413937
-1.556194490192362			0.44695388432742267
-1.551194490192362			0.44476239842767423
-1.546194490192362			0.4425925097474839
-1.5411944901923622			0.44044395407996906
-1.5361944901923623			0.4383164713503804
-1.5311944901923624			0.4362098055394102
-1.5261944901923625			0.43412370460816074
-1.5211944901923626			0.43205792042473184
-1.5161944901923627			0.4300122086923885
-1.5111944901923628			0.4279863288792688
-1.506194490192363			0.4259800441495955
-1.501194490192363			0.42399312129635425
-1.4961944901923632			0.4220253306754026
-1.4911944901923633			0.4200764461409757
-1.4861944901923634			0.418146244982555
-1.4811944901923635			0.4162345078630658
-1.4761944901923636			0.41434101875837526
-1.4711944901923637			0.41246556489805464
-1.4661944901923638			0.41060793670738055
-1.461194490192364			0.40876792775054305
-1.456194490192364			0.4069453346750323
-1.4511944901923641			0.4051399571571766
-1.4461944901923642			0.4033515978488047
-1.4411944901923643			0.4015800623250049
-1.4361944901923644			0.39982515903295696
-1.4311944901923646			0.3980866992418096
-1.4261944901923647			0.39636449699358217
-1.4211944901923648			0.3946583690550636
-1.4161944901923649			0.39296813487068755
-1.411194490192365			0.3912936165163612
-1.406194490192365			0.3896346386542242
-1.4011944901923652			0.3879910284883185
-1.3961944901923653			0.3863626157211467
-1.3911944901923654			0.384749232511099
-1.3861944901923655			0.3831507134307298
-1.3811944901923656			0.38156689542586386
-1.3761944901923657			0.3799976177755127
-1.3711944901923658			0.378442722052585
-1.366194490192366			0.37690205208537075
-1.361194490192366			0.3753754539197838
-1.3561944901923662			0.3738627757823444
-1.3511944901923663			0.3723638680438861
-1.3461944901923664			0.3708785831839709
-1.3411944901923665			0.3694067757559956
-1.3361944901923666			0.3679483023529769
-1.3311944901923667			0.3665030215739969
-1.3261944901923668			0.365070793991297
-1.321194490192367			0.3636514821180049
-1.316194490192367			0.3622449503764813
-1.3111944901923671			0.36085106506727205
-1.3061944901923672			0.35946969433865333
-1.3011944901923673			0.3581007081567575
-1.2961944901923674			0.3567439782762647
-1.2911944901923675			0.35539937821165124
-1.2861944901923676			0.3540667832089806
-1.2811944901923678			0.3527460702182258
-1.2761944901923679			0.351437117866112
-1.271194490192368			0.3501398064294688
-1.266194490192368			0.34885401780907993
-1.2611944901923682			0.3475796355040217
-1.2561944901923683			0.34631654458647754
-1.2511944901923684			0.3450646316770214
-1.2461944901923685			0.34382378492035715
-1.2411944901923686			0.3425938939615069
-1.2361944901923687			0.3413748499224375
-1.2311944901923688			0.3401665453791161
-1.226194490192369			0.3389688743389868
-1.221194490192369			0.3377817322188582
-1.2161944901923691			0.33660501582319485
-1.2111944901923692			0.33543862332280305
-1.2061944901923694			0.33428245423390335
-1.2011944901923695			0.3331364093975822
-1.1961944901923696			0.33200039095961437
-1.1911944901923697			0.3308743023506484
-1.1861944901923698			0.3297580482667489
-1.1811944901923699			0.328651534650287
-1.17619449019237			0.3275546686711723
-1.17119449019237			0.32646735870842036
-1.1661944901923702			0.3253895143320477
-1.1611944901923703			0.32432104628528835
-1.1561944901923704			0.32326186646712507
-1.1511944901923705			0.32221188791513017
-1.1461944901923706			0.32117102478860754
-1.1411944901923707			0.3201391923520325
-1.1361944901923708			0.3191163069587809
-1.131194490192371			0.3181022860351445
-1.126194490192371			0.31709704806462446
-1.1211944901923712			0.3161005125724989
-1.1161944901923713			0.31511260011065884
-1.1111944901923714			0.3141332322427075
-1.1061944901923715			0.31316233152931694
-1.1011944901923716			0.31219982151383774
-1.0961944901923717			0.3112456267081573
-1.0911944901923718			0.31029967257880053
-1.086194490192372			0.3093618855332691
-1.081194490192372			0.30843219290661505
-1.0761944901923721			0.3075105229482433
-1.0711944901923722			0.3065968048089393
-1.0661944901923723			0.30569096852811706
-1.0611944901923724			0.3047929450212839
-1.0561944901923725			0.30390266606771754
-1.0511944901923727			0.30302006429835115
-1.0461944901923728			0.30214507318386263
-1.0411944901923729			0.30127762702296507
-1.036194490192373			0.3004176609308927
-1.031194490192373			0.299565110828081
-1.0261944901923732			0.2987199134290353
-1.0211944901923733			0.2978820062313856
-1.0161944901923734			0.29705132750512325
-1.0111944901923735			0.2962278162820174
-1.0061944901923736			0.295411412345206
-1.0011944901923737			0.2946020562189599
-0.9961944901923737			0.29379968915861593
-0.9911944901923737			0.2930042531406757
-0.9861944901923737			0.2922156908530678
-0.9811944901923737			0.2914339456855698
-0.9761944901923737			0.2906589617203872
-0.9711944901923737			0.2898906837228869
-0.9661944901923737			0.28912905713248155
-0.9611944901923737			0.2883740280536632
-0.9561944901923737			0.2876255432471821
-0.9511944901923737			0.2868835501213697
-0.9461944901923737			0.28614799672360136
-0.9411944901923737			0.28541883173189836
-0.9361944901923737			0.2846960044466646
-0.9311944901923737			0.2839794647825572
-0.9261944901923737			0.2832691632604879
-0.9211944901923736			0.2825650509997529
-0.9161944901923736			0.281867079710289
-0.9111944901923736			0.2811752016850542
-0.9061944901923736			0.2804893697925293
-0.9011944901923736			0.2798095374693402
-0.8961944901923736			0.27913565871299717
-0.8911944901923736			0.27846768807475
-0.8861944901923736			0.27780558065255634
-0.8811944901923736			0.27714929208416206
-0.8761944901923736			0.27649877854029103
-0.8711944901923736			0.27585399671794214
-0.8661944901923736			0.27521490383379316
-0.8611944901923736			0.2745814576177077
-0.8561944901923736			0.27395361630634496
-0.8511944901923736			0.2733313386368697
-0.8461944901923736			0.27271458384076114
-0.8411944901923736			0.27210331163771867
-0.8361944901923736			0.2714974822296635
-0.8311944901923736			0.27089705629483346
-0.8261944901923736			0.27030199498197055
-0.8211944901923736			0.2697122599045988
-0.8161944901923736			0.2691278131353915
-0.8111944901923736			0.2685486172006261
-0.8061944901923735			0.2679746350747248
-0.8011944901923735			0.2674058301748806
-0.7961944901923735			0.266842166355766
-0.7911944901923735			0.2662836079043241
-0.7861944901923735			0.26573011953464015
-0.7811944901923735			0.2651816663828921
-0.7761944901923735			0.26463821400237936
-0.7711944901923735			0.2640997283586283
-0.7661944901923735			0.263566175824573
-0.7611944901923735			0.2630375231758097
-0.7561944901923735			0.26251373758592556
-0.7511944901923735			0.2619947866218977
-0.7461944901923735			0.2614806382395635
-0.7411944901923735			0.26097126077916094
-0.7361944901923735			0.26046662296093603
-0.7311944901923735			0.25996669388081883
-0.7261944901923735			0.25947144300616476
-0.7211944901923735			0.2589808401715613
-0.7161944901923735			0.25849485557469903
-0.7111944901923735			0.25801345977230533
-0.7061944901923735			0.25753662367614066
-0.7011944901923735			0.2570643185490554
-0.6961944901923734			0.2565965160011074
-0.6911944901923734			0.256133187985738
-0.6861944901923734			0.25567430679600733
-0.6811944901923734			0.25521984506088624
-0.6761944901923734			0.2547697757416047
-0.6711944901923734			0.25432407212805636
-0.6661944901923734			0.25388270783525735
-0.6611944901923734			0.25344565679985925
-0.6561944901923734			0.25301289327671517
-0.6511944901923734			0.25258439183549786
-0.6461944901923734			0.25216012735736976
-0.6411944901923734			0.2517400750317033
-0.6361944901923734			0.25132421035285124
-0.6311944901923734			0.2509125091169666
-0.6261944901923734			0.25050494741887064
-0.6211944901923734			0.25010150164896844
-0.6161944901923734			0.2497021484902121
-0.6111944901923734			0.24930686491510978
-0.6061944901923734			0.24891562818278043
-0.6011944901923734			0.24852841583605373
-0.5961944901923734			0.24814520569861417
-0.5911944901923734			0.2477659758721888
-0.5861944901923734			0.247390704733778
-0.5811944901923733			0.2470193709329288
-0.5761944901923733			0.24665195338904997
-0.5711944901923733			0.24628843128876796
-0.5661944901923733			0.2459287840833242
-0.5611944901923733			0.24557299148601142
-0.5561944901923733			0.2452210334696505
-0.5511944901923733			0.24487289026410541
-0.5461944901923733			0.244528542353837
-0.5411944901923733			0.2441879704754943
-0.5361944901923733			0.24385115561554324
-0.5311944901923733			0.24351807900793246
-0.5261944901923733			0.2431887221317947
-0.5211944901923733			0.24286306670918478
-0.5161944901923733			0.2425410947028521
-0.5111944901923733			0.2422227883140485
-0.5061944901923733			0.24190812998037042
-0.5011944901923733			0.2415971023736345
-0.49619449019237327			0.24128968839778697
-0.49119449019237327			0.2409858711868462
-0.48619449019237326			0.24068563410287713
-0.48119449019237326			0.24038896073399857
-0.47619449019237325			0.24009583489242156
-0.47119449019237325			0.2398062406125195
-0.46619449019237325			0.2395201621489289
-0.46119449019237324			0.23923758397468048
-0.45619449019237324			0.2389584907793607
-0.45119449019237323			0.23868286746730277
-0.4461944901923732			0.238410699155807
-0.4411944901923732			0.23814197117339017
-0.4361944901923732			0.23787666905806348
-0.4311944901923732			0.23761477855563862
-0.4261944901923732			0.23735628561806207
-0.4211944901923732			0.23710117640177647
-0.4161944901923732			0.23684943726610963
-0.4111944901923732			0.23660105477169016
-0.4061944901923732			0.23635601567888992
-0.4011944901923732			0.23611430694629232
-0.3961944901923732			0.23587591572918712
-0.3911944901923732			0.23564082937809028
-0.3861944901923732			0.23540903543728953
-0.38119449019237317			0.2351805216434149
-0.37619449019237317			0.23495527592403406
-0.37119449019237316			0.23473328639627178
-0.36619449019237316			0.23451454136545413
-0.36119449019237315			0.23429902932377636
-0.35619449019237315			0.23408673894899432
-0.35119449019237314			0.23387765910313946
-0.34619449019237314			0.23367177883125692
-0.34119449019237313			0.23346908736016656
-0.33619449019237313			0.2332695740972466
-0.3311944901923731			0.23307322862923982
-0.3261944901923731			0.23288004072108165
-0.3211944901923731			0.2326900003147505
-0.3161944901923731			0.23250309752813983
-0.3111944901923731			0.23231932265395136
-0.3061944901923731			0.2321386661586101
-0.3011944901923731			0.23196111868120006
-0.2961944901923731			0.23178667103242112
-0.2911944901923731			0.23161531419356626
-0.2861944901923731			0.23144703931551958
-0.2811944901923731			0.2312818377177745
-0.2761944901923731			0.23111970088747205
-0.27119449019237307			0.2309606204784589
-0.26619449019237307			0.23080458831036546
-0.26119449019237306			0.23065159636770335
-0.25619449019237306			0.23050163679898225
-0.25119449019237305			0.23035470191584578
-0.24619449019237305			0.23021078419222704
-0.24119449019237305			0.2300698762635223
-0.23619449019237304			0.22993197092578382
-0.23119449019237304			0.22979706113493129
-0.22619449019237303			0.2296651400059815
-0.22119449019237303			0.22953620081229642
-0.21619449019237302			0.2294102369848494
-0.21119449019237302			0.2292872421115094
-0.20619449019237301			0.22916720993634285
-0.201194490192373			0.22905013435893387
-0.196194490192373			0.22893600943372122
-0.191194490192373			0.22882482936935358
-0.186194490192373			0.22871658852806162
-0.181194490192373			0.22861128142504744
-0.176194490192373			0.22850890272789154
-0.17119449019237298			0.2284094472559762
-0.16619449019237298			0.2283129099799262
-0.16119449019237297			0.22821928602106617
-0.15619449019237297			0.22812857065089476
-0.15119449019237297			0.2280407592905754
-0.14619449019237296			0.22795584751044343
-0.14119449019237296			0.22787383102952993
-0.13619449019237295			0.2277947057151016
-0.13119449019237295			0.22771846758221717
-0.12619449019237294			0.22764511279329966
-0.12119449019237294			0.2275746376577252
-0.11619449019237293			0.22750703863142732
-0.11119449019237293			0.22744231231651757
-0.10619449019237293			0.22738045546092192
-0.10119449019237292			0.22732146495803293
-0.09619449019237292			0.22726533784637765
-0.09119449019237291			0.22721207130930132
-0.08619449019237291			0.22716166267466648
-0.0811944901923729			0.22711410941456794
-0.0761944901923729			0.2270694091450629
-0.0711944901923729			0.22702755962591706
-0.06619449019237289			0.2269885587603655
-0.06119449019237289			0.22695240459488952
-0.056194490192372895			0.22691909531900847
-0.0511944901923729			0.22688862926508702
-0.0461944901923729			0.22686100490815767
-0.0411944901923729			0.22683622086575833
-0.036194490192372905			0.2268142758977856
-0.031194490192372904			0.22679516890636256
-0.026194490192372903			0.22677889893572198
-0.021194490192372902			0.22676546517210514
-0.0161944901923729			0.2267548669436748
-0.0111944901923729			0.22674710372044424
-0.0061944901923729			0.22674217511422057
-0.0011944901923729			0.2267400808785638
0.0038055098076271			0.2267408209087604
0.0088055098076271			0.22674439524181234
0.013805509807627101			0.22675080405644094
0.018805509807627102			0.22676004767310584
0.023805509807627103			0.22677212655403917
0.028805509807627104			0.22678704130329455
0.0338055098076271			0.22680479266681133
0.0388055098076271			0.22682538153249387
0.0438055098076271			0.22684880893030596
0.048805509807627094			0.22687507603238027
